ECG,EMG,HR,RESP,Seconds,footGSR,handGSR,interval in seconds,marker,newtime,stress,time,NNRR,AVNN,SDNN,RMSSD,pNN50,TP,ULF,VLF,LF,HF,LF_HF
-0.001973684,-0.004736842,77.81578947,10.80184211,12.52968421,2.417131579,10.88944737,0.614631579,,12.52968421,0,12.52968421,0.973684,0.617297,0.0355863,0.0152033,0.0555556,0.00123818,0,0.000696253,0.00040651,0.000135413,3.002
0.002934783,-0.004456522,101.9782609,10.7506087,30.5035,2.417108696,11.25106522,0.647826087,,30.5035,0,30.5035,0.978261,0.647889,0.0135466,0.013858,0.0454545,0.000144089,0,9.19E-06,5.97E-05,7.52E-05,0.79371
0.006744681,-0.003425532,104.9574468,10.55723404,52.52302128,2.22687234,11.3796383,0.646382979,,52.52302128,0,52.52302128,0.978723,0.645,2.24E-08,0,0,,0,,,,
-0.004042553,-0.002531915,87.70212766,10.64012766,74.40217021,2.173021277,11.47082979,0.645,,74.40217021,0,74.40217021,0.978723,0.645,2.24E-08,0,0,,0,,,,
0.012744681,-0.004425532,88.82978723,10.69931915,96.21961702,2.017106383,11.13525532,0.645,,96.21961702,0,96.21961702,0.978723,0.645,2.24E-08,0,0,,0,,,,
0.027787234,-0.004957447,91.40425532,10.744,117.8036383,2.147361702,12.20234043,0.645,,117.8036383,0,117.8036383,0.978723,0.645,2.24E-08,0,0,,0,,,,
-0.010851064,-0.004680851,87.31914894,10.8212766,138.8880638,2.277297872,13.07574468,0.645,,138.8880638,0,138.8880638,0.978723,0.645,2.24E-08,0,0,,0,,,,
-0.005217391,-0.004130435,79.52173913,11.11321739,159.9087174,2.313347826,13.82806522,0.654891304,,159.9087174,0,159.9087174,0.978261,0.655111,0.0238244,0.00979912,0.0227273,0.000548335,0,0.000223003,0.000292113,3.32E-05,8.79347
-0.019386364,-0.003727273,88.02272727,10.93754545,181.1495227,2.273704545,13.60931818,0.698181818,,181.1495227,0,181.1495227,0.977273,0.699419,0.0242803,0.0100297,0.0238095,0.00053774,0,0.000237166,0.000270865,2.97E-05,9.11724
-0.065409091,-0.002409091,89.86363636,11.20472727,201.8240909,2.090181818,12.40863636,0.71,,201.8240909,0,201.8240909,0.977273,0.71,,0,0,,0,,,,
-0.000977273,-0.003045455,86.90909091,11.31190909,222.3651364,1.956545455,11.33038636,0.71,,222.3651364,0,222.3651364,0.977273,0.71,,0,0,,0,,,,
-0.003727273,-0.004068182,85.27272727,10.96772727,243.2771364,1.861090909,10.32493182,0.71,,243.2771364,0,243.2771364,0.977273,0.71,,0,0,,0,,,,
0.018227273,-0.003363636,81.65909091,10.75759091,265.3474773,1.780272727,9.395659091,0.699659091,,265.3474773,0,265.3474773,0.977273,0.699419,0.0242803,0.0200594,0.0952381,0.000516669,0,0.000149946,0.00029004,7.67E-05,3.78234
-0.005113636,-0.004272727,86.5,10.23259091,286.3651136,1.711477273,8.681909091,0.71,,286.3651136,0,286.3651136,0.977273,0.71,,0,0,,0,,,,
-0.004295455,-0.005681818,84.75,10.33322727,306.88125,1.6485,8.055863636,0.71,,306.88125,0,306.88125,0.977273,0.71,,0,0,,0,,,,
-0.005772727,-0.004136364,83.20454545,11.00304545,328.0982273,1.587954545,7.451431818,0.71,,328.0982273,0,328.0982273,0.977273,0.71,,0,0,,0,,,,
-0.049590909,-0.003386364,86.61363636,11.17968182,348.2051818,1.536340909,6.954045455,0.71,,348.2051818,0,348.2051818,0.977273,0.71,,0,0,,0,,,,
-0.026363636,-0.00225,86.27272727,11.24868182,367.956,1.490568182,6.540454545,0.71,,367.956,0,367.956,0.977273,0.71,,0,0,,0,,,,
-0.045454545,-0.004659091,86.29545455,11.33877273,388.0162273,1.447363636,6.197636364,0.71,,388.0162273,0,388.0162273,0.977273,0.71,,0,0,,0,,,,
-0.048181818,-0.004068182,85.13636364,11.28372727,408.4883409,1.409272727,5.919045455,0.71,,408.4883409,0,408.4883409,0.977273,0.71,,0,0,,0,,,,
-0.014681818,-0.004409091,83.68181818,11.33286364,429.4751136,1.37425,5.761590909,0.71,,429.4751136,0,429.4751136,0.977273,0.71,,0,0,,0,,,,
-0.06,-0.004522727,82.68181818,11.33595455,450.8020682,1.340181818,5.58225,0.71,,450.8020682,0,450.8020682,0.977273,0.71,,0,0,,0,,,,
-0.025204545,-0.005227273,88.11363636,11.35690909,471.1554091,1.311477273,5.407454545,0.71,,471.1554091,0,471.1554091,0.977273,0.71,,0,0,,0,,,,
-0.026363636,-0.005113636,84.61363636,11.43113636,492.1348636,1.284636364,5.2575,0.71,,492.1348636,0,492.1348636,0.977273,0.71,,0,0,,0,,,,
-0.003886364,-0.002954545,82.38636364,11.39877273,513.7390227,1.258363636,5.124636364,0.71,,513.7390227,0,513.7390227,0.977273,0.71,,0,0,,0,,,,
-0.003772727,-0.003886364,84.95454545,11.40540909,534.7273182,1.2345,5.04125,0.71,,534.7273182,0,534.7273182,0.977273,0.71,,0,0,,0,,,,
-0.011545455,-0.004068182,84.09090909,11.31927273,556.81675,1.211727273,4.976045455,0.71,,556.81675,0,556.81675,0.977273,0.71,,0,0,,0,,,,
0.002090909,-0.003522727,86.45454545,11.35895455,578.8108864,1.190863636,4.904,0.71,,578.8108864,0,578.8108864,0.977273,0.71,,0,0,,0,,,,
0.019227273,-0.006727273,80.97727273,11.28954545,600.1935227,1.173204545,4.871681818,0.71,,600.1935227,0,600.1935227,0.977273,0.71,,0,0,,0,,,,
0.048204545,-0.00575,78.75,11.2165,622.3196364,1.157295455,4.841659091,0.71,,622.3196364,0,622.3196364,0.977273,0.71,,0,0,,0,,,,
0.025590909,-0.004477273,87.31818182,11.17995455,643.5675,1.141545455,4.795045455,0.71,,643.5675,0,643.5675,0.977273,0.71,,0,0,,0,,,,
0.020568182,-0.004909091,84.84090909,11.17686364,664.8826818,1.126772727,4.776636364,0.695227273,,664.8826818,0,664.8826818,0.977273,0.694884,0.0277851,0.0100297,0.0238095,0.000814801,0,0.000399329,0.000363894,5.16E-05,7.0552
-0.006957447,-0.077425532,92.65957447,11.31080851,685.8777234,1.793829787,10.16234043,0.651914894,,685.8777234,0,685.8777234,0.978723,0.650652,0.0185175,0.00968963,0.0222222,0.000292897,0,7.68E-05,0.000148707,6.74E-05,2.20564
0.014367347,-0.005081633,92.20408163,11.32432653,706.742551,2.972510204,21.2794898,0.605816327,,706.742551,0.693877551,706.742551,0.979592,0.605,0.0313117,0.00933536,0.0212766,0.000974108,0,0.000732261,0.000196795,4.51E-05,4.3681
0.06432,-0.00794,168.84,11.36584,726.0942,3.69256,22.3258,0.581,,726.0942,1,726.0942,0.98,0.581,7.84E-09,0,0,,0,,,,
-0.06516,-0.00844,142.12,11.4282,745.13934,5.48812,25.94972,0.581,,745.13934,1,745.13934,0.98,0.581,7.84E-09,0,0,,0,,,,
0.020979592,-0.006020408,109.5714286,11.49510204,764.413449,5.147183673,24.82714286,0.604510204,,764.413449,1,764.413449,0.979592,0.605,0.0313117,0.00933536,0.0212766,0.000974591,0,0.000733782,0.000194815,4.60E-05,4.23574
-0.002404255,-0.005489362,103.6595745,11.41068085,784.3679149,4.278957447,21.18155319,0.645,,784.3679149,1,784.3679149,0.978723,0.645,2.24E-08,0,0,,0,,,,
-0.024553191,-0.005042553,139.4042553,11.35421277,803.8023404,4.164744681,21.42848936,0.645,,803.8023404,1,803.8023404,0.978723,0.645,2.24E-08,0,0,,0,,,,
-0.073553191,-0.005744681,150.2978723,11.31242553,823.9148298,4.333893617,22.83019149,0.645,,823.9148298,1,823.9148298,0.978723,0.645,2.24E-08,0,0,,0,,,,
-0.040276596,-0.005297872,105.1702128,11.28702128,846.1043191,3.572085106,20.56565957,0.645,,846.1043191,1,846.1043191,0.978723,0.645,2.24E-08,0,0,,0,,,,
-0.0045,-0.00473913,119.5869565,11.29521739,868.9467174,3.038086957,19.27752174,0.654891304,,868.9467174,0.826086957,868.9467174,0.978261,0.655111,0.0238244,0.013858,0.0454545,0.000574142,0,0.00020489,0.000319456,4.98E-05,6.41529
-0.028045455,-0.004272727,120.2272727,11.34013636,891.0821364,2.943090909,19.12252273,0.69375,,891.0821364,0.431818182,891.0821364,0.977273,0.694884,0.0277851,0.017372,0.0714286,0.000724442,0,0.000205531,0.000441129,7.78E-05,5.67137
-0.003863636,-0.004227273,92.11363636,11.0765,911.4707045,3.695318182,21.39022727,0.71,,911.4707045,0.454545455,911.4707045,0.977273,0.71,,0,0,,0,,,,
-0.010090909,-0.005636364,101.8863636,11.12959091,931.9296818,4.421045455,23.94513636,0.71,,931.9296818,1,931.9296818,0.977273,0.71,,0,0,,0,,,,
-0.008022222,-0.003955556,93.13333333,11.36546667,952.9606222,4.076666667,22.37091111,0.678222222,,952.9606222,1,952.9606222,0.977778,0.6775,0.0328757,0.0171688,0.0697674,0.00104038,0,0.000609423,0.00030683,0.000124124,2.47196
-0.002978723,-0.006,114.6170213,11.23612766,974.934766,4.060553191,20.9067234,0.645,,974.934766,1,974.934766,0.978723,0.645,2.24E-08,0,0,,0,,,,
0.072702128,-0.005723404,115.9361702,11.40885106,997.419383,3.717595745,19.66548936,0.645,,997.419383,1,997.419383,0.978723,0.645,2.24E-08,0,0,,0,,,,
0.002638298,-0.00493617,87.55319149,11.47417021,1018.881319,3.326489362,18.79880851,0.645,,1018.881319,1,1018.881319,0.978723,0.645,2.24E-08,0,0,,0,,,,
-0.028574468,-0.004808511,115.4468085,11.45906383,1041.23134,3.158361702,19.0223617,0.645,,1041.23134,0.978723404,1041.23134,0.978723,0.645,2.24E-08,0,0,,0,,,,
-0.021446809,-0.003510638,133.0425532,11.38029787,1063.700809,3.182234043,19.65142553,0.645,,1063.700809,1,1063.700809,0.978723,0.645,2.24E-08,0,0,,0,,,,
0.022744681,-0.003531915,92.19148936,11.09638298,1085.929936,3.696382979,21.38995745,0.645,,1085.929936,1,1085.929936,0.978723,0.645,2.24E-08,0,0,,0,,,,
0.03673913,-0.007804348,99.02173913,11.22378261,1108.006935,3.983804348,22.08258696,0.652065217,,1108.006935,1,1108.006935,0.978261,0.652222,0.0206584,0.013858,0.0454545,0.000406765,0,0.000103211,0.000223112,8.04E-05,2.77356
0.016652174,-0.005717391,113.7391304,11.58882609,1129.534348,4.174913043,22.13680435,0.654891304,,1129.534348,1,1129.534348,0.978261,0.655111,0.0238244,0.0195982,0.0909091,0.000521142,0,0.000153929,0.000211,0.000156213,1.35072
0.002431818,-0.003840909,96.47727273,11.17686364,1151.777205,3.283795455,20.21445455,0.681931818,,1151.777205,1,1151.777205,0.977273,0.682791,0.032446,0.0100297,0.0238095,0.00108472,0,0.000809988,0.000193053,8.17E-05,2.3635
0.027681818,-0.003704545,87.36363636,11.42090909,1172.495568,3.165636364,20.07031818,0.698181818,,1172.495568,1,1172.495568,0.977273,0.697907,0.0255937,0.0200594,0.0952381,0.000549588,0,0.000228457,0.000249217,7.19E-05,3.46549
-0.001113636,-0.004886364,85.38636364,11.51527273,1193.112932,3.083704545,19.36122727,0.689318182,,1193.112932,0.863636364,1193.112932,0.977273,0.688837,0.0308189,0.0283683,0.190476,0.00079533,0,0.000370342,0.00024368,0.000181307,1.34402
-0.056772727,-0.004636364,90.95454545,11.50722727,1213.008818,3.394590909,20.59261364,0.704090909,,1213.008818,0.931818182,1213.008818,0.977273,0.703953,0.0191037,0.0100297,0.0238095,0.00032235,0,8.89E-05,0.000154913,7.85E-05,1.97353
-0.051521739,-0.004695652,77.91304348,11.41091304,1233.479674,3.464347826,20.83319565,0.660543478,,1233.479674,1,1233.479674,0.978261,0.659444,0.0273284,0.00979912,0.0227273,0.000765472,0,0.000387917,0.000317419,6.01E-05,5.27841
0.001829787,-0.005255319,82.78723404,11.36114894,1254.958149,3.276,20.19887234,0.645,,1254.958149,1,1254.958149,0.978723,0.645,2.24E-08,0,0,,0,,,,
0.026510638,-0.005851064,117,11.45378723,1276.041149,3.465617021,20.68438298,0.645,,1276.041149,1,1276.041149,0.978723,0.645,2.24E-08,0,0,,0,,,,
0.026340426,-0.005042553,122.5531915,11.46293617,1297.931404,3.887085106,21.45312766,0.645,,1297.931404,1,1297.931404,0.978723,0.645,2.24E-08,0,0,,0,,,,
-0.04993617,-0.005574468,104.1276596,11.48629787,1321.11466,3.751489362,21.07344681,0.645,,1321.11466,1,1321.11466,0.978723,0.645,2.24E-08,0,0,,0,,,,
-0.011425532,-0.00606383,121.7446809,11.5153617,1344.123532,3.59006383,20.39393617,0.645,,1344.123532,1,1344.123532,0.978723,0.645,2.24E-08,0,0,,0,,,,
-0.043021277,-0.006680851,91.40425532,11.35438298,1366.593,3.549978723,20.45961702,0.645,,1366.593,1,1366.593,0.978723,0.645,2.24E-08,0,0,,0,,,,
0.003702128,-0.007425532,91.04255319,11.33217021,1389.122894,3.572574468,20.54882979,0.645,,1389.122894,1,1389.122894,0.978723,0.645,2.24E-08,0,0,,0,,,,
0.015085106,-0.004787234,103.5106383,12.18425532,1411.983532,3.409042553,20.10755319,0.645,,1411.983532,1,1411.983532,0.978723,0.645,2.24E-08,0,0,,0,,,,
0.003382979,-0.003829787,89.87234043,12.24331915,1433.379617,4.235851064,21.85921277,0.645,,1433.379617,1,1433.379617,0.978723,0.645,2.24E-08,0,0,,0,,,,
0.02712766,-0.00412766,112.2553191,11.80289362,1453.960213,4.297914894,22.21223404,0.645,,1453.960213,1,1453.960213,0.978723,0.645,2.24E-08,0,0,,0,,,,
0.036021277,-0.004489362,92.36170213,11.42025532,1476.024766,3.607723404,20.47789362,0.645,,1476.024766,1,1476.024766,0.978723,0.645,2.24E-08,0,0,,0,,,,
-0.011978723,-0.005212766,87.70212766,11.78510638,1499.132489,3.44512766,20.19602128,0.645,,1499.132489,1,1499.132489,0.978723,0.645,2.24E-08,0,0,,0,,,,
0.084765957,-0.006765957,91.4893617,11.95468085,1521.265617,3.670957447,20.47578723,0.645,,1521.265617,1,1521.265617,0.978723,0.645,2.24E-08,0,0,,0,,,,
0.042106383,-0.006106383,94.40425532,11.74838298,1542.300681,3.728234043,20.45895745,0.645,,1542.300681,1,1542.300681,0.978723,0.645,2.24E-08,0,0,,0,,,,
0.039659574,-0.005212766,100.4680851,11.83165957,1562.584787,3.746489362,21.0842766,0.645,,1562.584787,1,1562.584787,0.978723,0.645,2.24E-08,0,0,,0,,,,
0.014680851,-0.005851064,111.8723404,11.66034043,1583.578574,4.083319149,21.27406383,0.645,,1583.578574,1,1583.578574,0.978723,0.645,2.24E-08,0,0,,0,,,,
0.017574468,-0.005212766,115.5106383,11.81131915,1604.227872,4.180148936,20.73868085,0.645,,1604.227872,1,1604.227872,0.978723,0.645,2.24E-08,0,0,,0,,,,
0.003191489,-0.006,105.9787234,11.32617021,1624.243,4.235893617,21.35385106,0.645,,1624.243,1,1624.243,0.978723,0.645,2.24E-08,0,0,,0,,,,
0.021851064,-0.005893617,93.65957447,11.61680851,1646.462553,3.799638298,21.15259574,0.645,,1646.462553,1,1646.462553,0.978723,0.645,2.24E-08,0,0,,0,,,,
0.003319149,-0.006255319,93.44680851,11.54314894,1668.803021,3.460702128,20.01819149,0.645,,1668.803021,1,1668.803021,0.978723,0.645,2.24E-08,0,0,,0,,,,
-0.041553191,-0.004702128,89.85106383,11.3927234,1691.603298,3.193276596,19.33610638,0.645,,1691.603298,1,1691.603298,0.978723,0.645,2.24E-08,0,0,,0,,,,
-0.027466667,-0.005777778,88.44444444,11.67164444,1713.027956,3.861955556,20.68395556,0.671,,1713.027956,1,1713.027956,0.977778,0.671591,0.0323278,0.0242803,0.139535,0.000990187,0,0.00040024,0.000328734,0.000261213,1.25849
-0.006977778,-0.004911111,85.8,11.56257778,1733.579956,4.423022222,21.31611111,0.694111111,,1733.579956,1,1733.579956,0.977778,0.69375,0.0284712,0.0198248,0.0930233,0.000753365,0,0.000219646,0.000404381,0.000129338,3.12654
0.0015,-0.003295455,88.38636364,11.969,1755.093864,3.880909091,21.24009091,0.71,,1755.093864,1,1755.093864,0.977273,0.71,,0,0,,0,,,,
-0.007272727,-0.004136364,90.54545455,12.19109091,1775.967727,3.734590909,21.08815909,0.71,,1775.967727,1,1775.967727,0.977273,0.71,,0,0,,0,,,,
0.005818182,-0.006795455,104.8409091,11.975,1797.413455,3.284568182,20.07075,0.71,,1797.413455,1,1797.413455,0.977273,0.71,,0,0,,0,,,,
-0.013204545,-0.005818182,121.8409091,12.06895455,1818.941341,3.052113636,19.12745455,0.699659091,,1818.941341,0.931818182,1818.941341,0.977273,0.699419,0.0242803,0.0100297,0.0238095,0.000592118,0,0.000235289,0.000261108,9.57E-05,2.72781
-0.030808511,-0.004680851,91.89361702,11.90502128,1840.878489,2.898638298,18.73595745,0.65606383,,1840.878489,0.255319149,1840.878489,0.978723,0.654891,0.0236053,0.00968963,0.0222222,0.000575757,0,0.000235035,0.000286479,5.42E-05,5.28139
0.007553191,-0.005510638,88.80851064,11.90582979,1863.632149,2.802340426,19.09544681,0.645,,1863.632149,0,1863.632149,0.978723,0.645,2.24E-08,0,0,,0,,,,
0.017042553,-0.00506383,88.0212766,11.81897872,1885.128319,2.787702128,19.98082979,0.645,,1885.128319,0,1885.128319,0.978723,0.645,2.24E-08,0,0,,0,,,,
0.017244444,-0.005688889,89.71111111,11.56711111,1906.729733,2.663,20.41106667,0.679666667,,1906.729733,0,1906.729733,0.977778,0.680455,0.0327396,0.00991241,0.0232558,0.00111096,0,0.000834307,0.000196501,8.02E-05,2.45159
0.008431818,-0.004090909,83.97727273,11.50818182,1927.309364,2.577204545,20.53581818,0.699659091,,1927.309364,0,1927.309364,0.977273,0.699419,0.0242803,0.0100297,0.0238095,0.000578726,0,0.000232901,0.00029662,4.92E-05,6.02835
-0.006085106,-0.004382979,84.55319149,11.58804255,1948.881298,2.680510638,21.33844681,0.65606383,,1948.881298,0.106382979,1948.881298,0.978723,0.654891,0.0236053,0.00968963,0.0222222,0.000545116,0,0.000211628,0.000287525,4.60E-05,6.2556
-0.073765957,-0.005595745,88.70212766,11.74821277,1969.665128,3.501617021,24.10934043,0.636829787,,1969.665128,0.787234043,1969.665128,0.978723,0.636652,0.0217922,0.00954056,0.0222222,0.000473685,0,0.000152952,0.000246704,7.40E-05,3.33251
0.02292,-0.00544,98.38,11.63792,1989.76,3.46594,23.7947,0.59252,,1989.76,1,1989.76,0.98,0.591449,0.0239,0.0092376,0.0208333,0.000557191,0,0.000226,0.000285053,4.61E-05,6.17826
-0.02882,-0.00404,138.86,11.6978,2010.97672,3.20606,22.5019,0.58228,,2010.97672,1,2010.97672,0.98,0.582306,0.00914286,0.0130639,0.0416667,3.93E-05,0,1.83E-06,1.19E-05,2.56E-05,0.464669
0.0135,-0.004854167,97.375,12.156375,2032.671979,3.1015625,22.434125,0.609,,2032.671979,1,2032.671979,0.979167,0.609596,0.0321624,0.00943629,0.0217391,0.00108591,0,0.000800498,0.000227216,5.82E-05,3.90446
0.025021277,-0.005021277,121.5319149,12.03910638,2053.932745,3.671021277,24.09119149,0.642276596,,2053.932745,1,2053.932745,0.978723,0.642217,0.0131958,0.0165247,0.0666667,7.33E-05,0,1.86E-05,3.02E-05,2.45E-05,1.23423
0.016255319,-0.004744681,94.68085106,11.84557447,2074.369319,3.981531915,23.74491489,0.640914894,,2074.369319,1,2074.369319,0.978723,0.640826,0.0159768,0.0190811,0.0888889,0.000157899,0,1.98E-05,6.40E-05,7.41E-05,0.863129
0.032468085,-0.004914894,90.9787234,11.90229787,2093.997255,4.043085106,23.46431915,0.645,,2093.997255,1,2093.997255,0.978723,0.645,2.24E-08,0,0,,0,,,,
0.034086957,-0.005782609,82.54347826,11.56043478,2115.493652,3.552652174,22.28682609,0.654891304,,2115.493652,1,2115.493652,0.978261,0.655111,0.0238244,0.00979912,0.0227273,0.000580896,0,0.000242914,0.000284933,5.30E-05,5.3712
-0.018590909,-0.004840909,81.36363636,11.82981818,2138.340136,3.29175,21.24115909,0.698181818,,2138.340136,1,2138.340136,0.977273,0.699419,0.0242803,0.0100297,0.0238095,0.000578604,0,0.000261992,0.000226484,9.01E-05,2.51293
-0.0016,-0.004711111,97.88888889,11.92346667,2159.491067,3.028511111,20.05544444,0.682555556,,2159.491067,0.711111111,2159.491067,0.977778,0.681932,0.0325686,0.00991241,0.0232558,0.00111227,0,0.000818524,0.00020107,9.27E-05,2.16967
0.018595745,-0.00512766,129.7446809,12.08531915,2181.423447,2.81787234,19.35744681,0.645,,2181.423447,0.042553191,2181.423447,0.978723,0.645,2.24E-08,0,0,,0,,,,
-0.017595745,-0.004808511,102.106383,11.93680851,2203.044532,2.674382979,18.80004255,0.645,,2203.044532,0,2203.044532,0.978723,0.645,2.24E-08,0,0,,0,,,,
-0.014170213,-0.004276596,86.31914894,12.15906383,2225.409723,2.534957447,18.05589362,0.645,,2225.409723,0,2225.409723,0.978723,0.645,2.24E-08,0,0,,0,,,,
0.021829787,-0.005234043,121.7021277,12.10855319,2246.903213,2.442808511,17.78982979,0.645,,2246.903213,0,2246.903213,0.978723,0.645,2.24E-08,0,0,,0,,,,
-0.011468085,-0.006659574,125.9148936,12.07302128,2267.776255,2.937085106,20.93151064,0.645,,2267.776255,0.382978723,2267.776255,0.978723,0.645,2.24E-08,0,0,,0,,,,
-0.079106383,-0.003723404,88.93617021,11.93204255,2289.717277,3.432510638,23.67685106,0.645,,2289.717277,1,2289.717277,0.978723,0.645,2.24E-08,0,0,,0,,,,
-0.025255319,-0.004808511,85.08510638,11.90187234,2312.855213,3.030702128,22.16182979,0.645,,2312.855213,0.723404255,2312.855213,0.978723,0.645,2.24E-08,0,0,,0,,,,
-0.010042553,-0.005106383,96.31914894,12.01978723,2334.702766,2.910829787,21.68085106,0.645,,2334.702766,0.212765957,2334.702766,0.978723,0.645,2.24E-08,0,0,,0,,,,
0.024234043,-0.004468085,90.55319149,11.86387234,2356.134511,2.976170213,21.83706383,0.645,,2356.134511,0.489361702,2356.134511,0.978723,0.645,2.24E-08,0,0,,0,,,,
-0.024744681,-0.004468085,88.91489362,11.71489362,2377.674702,3.055382979,22.17285106,0.645,,2377.674702,0.723404255,2377.674702,0.978723,0.645,2.24E-08,0,0,,0,,,,
-0.027553191,-0.005659574,89.59574468,11.86731915,2399.336957,3.269042553,22.41559574,0.645,,2399.336957,1,2399.336957,0.978723,0.645,2.24E-08,0,0,,0,,,,
0.011319149,-0.002829787,71.25531915,11.92246809,2419.669213,3.543489362,23.44057447,0.645,,2419.669213,1,2419.669213,0.978723,0.645,2.24E-08,0,0,,0,,,,
-0.022804348,-0.004565217,92.52173913,11.7273913,2440.461391,3.337826087,22.25747826,0.666195652,,2440.461391,1,2440.461391,0.978261,0.666667,0.0309875,0.00979912,0.0227273,0.000955015,0,0.000673962,0.000221968,5.91E-05,3.7567
-0.023113636,-0.005272727,86.59090909,11.70245455,2462.005864,2.976613636,20.79977273,0.71,,2462.005864,0.545454545,2462.005864,0.977273,0.71,,0,0,,0,,,,
-0.009227273,-0.003090909,84.29545455,12.31618182,2482.212591,2.840636364,20.21497727,0.702613636,,2482.212591,0,2482.212591,0.977273,0.702442,0.0210829,0.0100297,0.0238095,0.000405138,0,0.000132448,0.000199893,7.28E-05,2.74587
-0.020851064,-0.003787234,90.55319149,12.03425532,2503.380872,2.707765957,19.454,0.658829787,,2503.380872,0,2503.380872,0.978723,0.657717,0.0260706,0.00968963,0.0222222,0.000699083,0,0.000349741,0.000299241,5.01E-05,5.97274
0.004510638,-0.005574468,118.3617021,12.01885106,2525.778915,2.594319149,18.92814894,0.645,,2525.778915,0,2525.778915,0.978723,0.645,2.24E-08,0,0,,0,,,,
0.026723404,-0.005851064,101.893617,11.9592766,2547.520894,2.505319149,18.42789362,0.645,,2547.520894,0,2547.520894,0.978723,0.645,2.24E-08,0,0,,0,,,,
0.003468085,-0.005787234,91.29787234,11.89519149,2568.868957,2.473297872,19.09419149,0.645,,2568.868957,0,2568.868957,0.978723,0.645,2.24E-08,0,0,,0,,,,
-0.010217391,-0.004,117.7608696,11.83713043,2590.112152,3.110847826,23.93826087,0.653478261,,2590.112152,0.630434783,2590.112152,0.978261,0.653667,0.0223454,0.00979912,0.0227273,0.000452421,0,0.000176616,0.000217291,5.85E-05,3.71354
-0.023681818,-0.004545455,98.36363636,12.23190909,2611.291886,3.092386364,23.03288636,0.696704545,,2611.291886,0.704545455,2611.291886,0.977273,0.697907,0.0255937,0.0100297,0.0238095,0.000658355,0,0.000302034,0.00029432,6.20E-05,4.74707
-0.0115,-0.004704545,95.90909091,11.89145455,2632.517614,2.800840909,21.55125,0.708522727,,2632.517614,0.045454545,2632.517614,0.977273,0.708488,0.00991241,0.0141842,0.047619,5.32E-05,0,2.32E-06,1.67E-05,3.42E-05,0.48876
-0.010391304,-0.005347826,115.5217391,11.85169565,2654.180935,2.67926087,21.53743478,0.670434783,,2654.180935,0,2654.180935,0.978261,0.669556,0.0318702,0.00979912,0.0227273,0.00106145,0,0.000764418,0.000237531,5.95E-05,3.99229
-0.025382979,-0.005361702,87.93617021,11.93017021,2675.998596,2.795553191,23.6866383,0.645,,2675.998596,0.191489362,2675.998596,0.978723,0.645,2.24E-08,0,0,,0,,,,
0.001234043,-0.00312766,113.4468085,11.84404255,2696.701426,3.54287234,27.65285106,0.645,,2696.701426,0.872340426,2696.701426,0.978723,0.645,2.24E-08,0,0,,0,,,,
0.052659574,-0.004574468,105.0851064,12.08919149,2715.71583,4.57712766,28.64076596,0.645,,2715.71583,1,2715.71583,0.978723,0.645,2.24E-08,0,0,,0,,,,
0.075851064,-0.006723404,132.4468085,11.95191489,2735.384979,4.482574468,27.12853191,0.645,,2735.384979,1,2735.384979,0.978723,0.645,2.24E-08,0,0,,0,,,,
-0.011425532,-0.006148936,171.2765957,11.84476596,2756.521617,3.990574468,25.27819149,0.645,,2756.521617,1,2756.521617,0.978723,0.645,2.24E-08,0,0,,0,,,,
-0.03125,-0.005590909,121.6136364,11.58959091,2778.844591,3.526954545,23.54472727,0.683409091,,2778.844591,1,2778.844591,0.977273,0.684302,0.0321563,0.0100297,0.0238095,0.00108665,0,0.000862071,0.000155805,6.88E-05,2.2654
0.015568182,-0.005886364,90.20454545,11.87359091,2800.104136,3.456204545,23.79322727,0.702613636,,2800.104136,1,2800.104136,0.977273,0.702442,0.0210829,0.0141842,0.047619,0.00033704,0,0.000120764,0.000191648,2.46E-05,7.78136
0.008113636,-0.006068182,81.56818182,11.58563636,2821.118727,3.4555,23.53704545,0.699659091,,2821.118727,1,2821.118727,0.977273,0.699419,0.0242803,0.0200594,0.0952381,0.000446204,0,0.000106386,0.000243702,9.61E-05,2.5355
-0.022113636,-0.006409091,94.31818182,11.36359091,2841.080591,3.242431818,22.53879545,0.71,,2841.080591,1,2841.080591,0.977273,0.71,,0,0,,0,,,,
0.004266667,-0.004822222,83.22222222,11.71155556,2861.255956,3.063688889,21.96968889,0.675333333,,2861.255956,0.977777778,2861.255956,0.977778,0.674545,0.0327396,0.00991241,0.0232558,0.00109731,0,0.000838608,0.000188752,6.99E-05,2.69843
0.007565217,-0.004108696,85.67391304,11.74378261,2882.399761,2.936217391,22.30693478,0.653478261,,2882.399761,0.391304348,2882.399761,0.978261,0.653667,0.0223454,0.013858,0.0454545,0.000470288,0,6.76E-05,0.000332477,7.02E-05,4.7369
-0.000851064,-0.002914894,74.14893617,11.85412766,2903.271128,3.026553191,23.17376596,0.645,,2903.271128,0.765957447,2903.271128,0.978723,0.645,2.24E-08,0,0,,0,,,,
0.027829787,-0.005893617,92.08510638,11.77093617,2925.641702,3.151468085,23.32782979,0.645,,2925.641702,1,2925.641702,0.978723,0.645,2.24E-08,0,0,,0,,,,
0.014361702,-0.004191489,104.8510638,11.65144681,2947.612851,3.346765957,24.19019149,0.645,,2947.612851,1,2947.612851,0.978723,0.645,2.24E-08,0,0,,0,,,,
0.015553191,-0.004404255,122.5957447,11.68259574,2969.105,3.685510638,25.49085106,0.645,,2969.105,1,2969.105,0.978723,0.645,2.24E-08,0,0,,0,,,,
0.003543478,-0.004326087,83.41304348,11.84047826,2990.318391,3.230413043,22.95130435,0.664782609,,2990.318391,1,2990.318391,0.978261,0.665222,0.0304317,0.00979912,0.0227273,0.000940857,0,0.000623131,0.000249508,6.82E-05,3.65753
0.026295455,-0.004795455,88.40909091,11.88872727,3011.913432,3.079431818,23.08084091,0.708522727,,3011.913432,1,3011.913432,0.977273,0.71,,0,0,,0,,,,
0.016222222,-0.004688889,94.33333333,11.51111111,3033.578422,3.060866667,23.56513333,0.684,,3033.578422,1,3033.578422,0.977778,0.683409,0.0323278,0.0171688,0.0697674,0.00105664,0,0.000306289,0.000615843,0.00013451,4.57842
0.025595745,-0.005617021,95.5106383,11.20485106,3055.872298,2.944234043,22.46978723,0.647765957,,3055.872298,0.510638298,3055.872298,0.978723,0.646413,0.00958373,0.00968963,0.0222222,5.00E-05,0,5.79E-06,1.30E-05,3.11E-05,0.418526
0.019042553,-0.005489362,87.34042553,11.74893617,3078.325255,2.779191489,20.75851064,0.645,,3078.325255,0,3078.325255,0.978723,0.645,2.24E-08,0,0,,0,,,,
0.016404255,-0.005744681,105,11.92612766,3101.040511,2.648148936,19.80919149,0.645,,3101.040511,0,3101.040511,0.978723,0.645,2.24E-08,0,0,,0,,,,
0.010489362,-0.005978723,96.34042553,11.59621277,3124.119511,2.598914894,19.82734043,0.645,,3124.119511,0,3124.119511,0.978723,0.645,2.24E-08,0,0,,0,,,,
-0.011638298,-0.00506383,68.44680851,11.75540426,3145.898447,2.711978723,20.97478723,0.645,,3145.898447,0,3145.898447,0.978723,0.645,2.24E-08,0,0,,0,,,,
-0.004340426,-0.00393617,73.70212766,11.58859574,3166.958128,2.666617021,22.0256383,0.645,,3166.958128,0,3166.958128,0.978723,0.645,2.24E-08,0,0,,0,,,,
-0.007957447,-0.003808511,90.5106383,11.6632766,3188.60534,2.664170213,23.08734043,0.645,,3188.60534,0.042553191,3188.60534,0.978723,0.645,2.24E-08,0,0,,0,,,,
-0.037659574,-0.004808511,112.106383,11.68519149,3209.299851,2.794510638,24.32655319,0.645,,3209.299851,0.085106383,3209.299851,0.978723,0.645,2.24E-08,0,0,,0,,,,
0.116957447,-0.002297872,104.5744681,11.79029787,3228.326638,2.763914894,25.57440426,0.645,,3228.326638,0,3228.326638,0.978723,0.645,2.24E-08,0,0,,0,,,,
0.093723404,-0.002085106,116.3404255,11.74970213,3246.955319,2.950787234,27.2792766,0.645,,3246.955319,0.510638298,3246.955319,0.978723,0.645,2.24E-08,0,0,,0,,,,
0.030531915,-0.005680851,103.3617021,11.44217021,3267.261468,3.171765957,27.15655319,0.645,,3267.261468,0.574468085,3267.261468,0.978723,0.645,2.24E-08,0,0,,0,,,,
0.036255319,-0.036297872,98.93617021,11.39991489,3287.426213,3.664361702,27.17946809,0.645,,3287.426213,1,3287.426213,0.978723,0.645,2.24E-08,0,0,,0,,,,
-0.058595745,0.004297872,71.46808511,11.78268085,3307.766617,3.808659574,25.87946809,0.645,,3307.766617,1,3307.766617,0.978723,0.645,2.24E-08,0,0,,0,,,,
-0.011212766,0.004170213,83.76595745,11.9186383,3328.91834,3.739021277,25.51223404,0.645,,3328.91834,1,3328.91834,0.978723,0.645,2.24E-08,0,0,,0,,,,
-0.0795,-0.002152174,90.30434783,11.83569565,3351.29737,3.399782609,24.13604348,0.666195652,,3351.29737,1,3351.29737,0.978261,0.666667,0.0309875,0.00979912,0.0227273,0.00101374,0,0.000736486,0.000211427,6.58E-05,3.21198
-0.044704545,-0.003340909,90.65909091,11.77422727,3372.566045,3.176886364,23.17540909,0.71,,3372.566045,1,3372.566045,0.977273,0.71,,0,0,,0,,,,
-0.047181818,-0.003227273,90.43181818,11.77172727,3392.812295,2.960454545,21.82559091,0.71,,3392.812295,0.522727273,3392.812295,0.977273,0.71,,0,0,,0,,,,
-0.041363636,-0.003136364,86.70454545,11.97968182,3414.153955,2.797,20.76118182,0.71,,3414.153955,0,3414.153955,0.977273,0.71,,0,0,,0,,,,
-0.005159091,-0.002818182,89.65909091,11.93563636,3436.334295,2.666568182,19.79893182,0.71,,3436.334295,0,3436.334295,0.977273,0.71,,0,0,,0,,,,
0.009636364,-0.004522727,94.06818182,11.75968182,3457.697932,2.564272727,19.03995455,0.71,,3457.697932,0,3457.697932,0.977273,0.71,,0,0,,0,,,,
-0.024681818,-0.004318182,86.22727273,11.36522727,3479.184705,2.483340909,18.51252273,0.71,,3479.184705,0,3479.184705,0.977273,0.71,,0,0,,0,,,,
0.019227273,-0.005886364,81.86363636,11.23459091,3501.287341,2.426522727,18.27740909,0.71,,3501.287341,0,3501.287341,0.977273,0.71,,0,0,,0,,,,
-0.003863636,-0.003840909,84.20454545,11.6365,3522.696477,2.362727273,18.0735,0.71,,3522.696477,0,3522.696477,0.977273,0.71,,0,0,,0,,,,
0.029386364,-0.00425,82.63636364,11.54822727,3544.378318,2.305795455,17.86590909,0.71,,3544.378318,0,3544.378318,0.977273,0.71,,0,0,,0,,,,
0.038045455,-0.004181818,80.06818182,11.50013636,3568.353432,2.24775,17.38013636,0.71,,3568.353432,0,3568.353432,0.977273,0.71,,0,0,,0,,,,
0.047090909,-0.002090909,79.15909091,11.53304545,3592.200932,2.199704545,16.78306818,0.71,,3592.200932,0,3592.200932,0.977273,0.71,,0,0,,0,,,,
-0.011863636,-0.004204545,80.84090909,11.55336364,3614.360705,2.156159091,16.27845455,0.71,,3614.360705,0,3614.360705,0.977273,0.71,,0,0,,0,,,,
-0.021386364,-0.002909091,82.77272727,11.50777273,3635.247773,2.137363636,17.10004545,0.71,,3635.247773,0,3635.247773,0.977273,0.71,,0,0,,0,,,,
-0.000733333,-0.003488889,101.6444444,11.6964,3656.203511,2.1072,17.15126667,0.676777778,,3656.203511,0,3656.203511,0.977778,0.676023,0.0328418,0.0171688,0.0697674,0.00107075,0,0.000786398,0.000135487,0.000148865,0.910133
0.017723404,-0.003085106,95.25531915,11.57221277,3677.68834,2.067638298,16.60193617,0.645,,3677.68834,0,3677.68834,0.978723,0.645,2.24E-08,0,0,,0,,,,
0.031638298,-0.005361702,93.14893617,11.71902128,3699.319149,2.031042553,15.98534043,0.650531915,,3699.319149,0,3699.319149,0.978723,0.650652,0.0185175,0.00968963,0.0222222,0.000291758,0,9.19E-05,0.000141576,5.83E-05,2.42953
-0.0255,-0.004977273,89.25,11.74954545,3722.171591,1.995181818,15.39593182,0.69375,,3722.171591,0,3722.171591,0.977273,0.694884,0.0277851,0.0100297,0.0238095,0.000875809,0,0.000460328,0.000280323,0.000135159,2.07402
-0.041068182,-0.002045455,83.5,11.77036364,3744.472114,1.964522727,15.07886364,0.71,,3744.472114,0,3744.472114,0.977273,0.71,,0,0,,0,,,,
-0.049113636,-0.002272727,88.5,11.91077273,3765.573273,1.937954545,14.88663636,0.71,,3765.573273,0,3765.573273,0.977273,0.71,,0,0,,0,,,,
-0.031477273,-0.003954545,85.43181818,11.89936364,3785.690591,1.910795455,14.74015909,0.71,,3785.690591,0,3785.690591,0.977273,0.71,,0,0,,0,,,,
-0.0135,-0.005568182,84.06818182,11.85468182,3806.982455,1.884181818,14.8595,0.71,,3806.982455,0,3806.982455,0.977273,0.71,,0,0,,0,,,,
-0.001386364,-0.004727273,81.34090909,11.50195455,3828.881273,1.869454545,16.25120455,0.71,,3828.881273,0,3828.881273,0.977273,0.71,,0,0,,0,,,,
0.007022727,-0.003022727,82.61363636,11.6325,3851.51025,1.846727273,16.18847727,0.712909091,,3851.51025,0,3851.51025,0.977273,0.712977,0.0136373,0.00987541,0.0238095,0.000169614,0,2.40E-05,6.09E-05,8.47E-05,0.719165
0.024,-0.003261905,82.97619048,11.72719048,3874.04919,1.820404762,15.63733333,0.754190476,,3874.04919,0,3874.04919,0.97619,0.755268,0.0294814,0.0101193,0.025,0.000908617,0,0.000621553,0.000238449,4.86E-05,4.90493
0.020071429,-0.007190476,78.92857143,11.794,3895.354905,1.797785714,15.03580952,0.749619048,,3895.354905,0,3895.354905,0.97619,0.749024,0.0316073,0.0101193,0.025,0.00107901,0,0.000809063,0.000203063,6.69E-05,3.03583
0.023818182,-0.006636364,82.54545455,11.79709091,3918.090932,1.774727273,14.54465909,0.71,,3918.090932,0,3918.090932,0.977273,0.71,,0,0,,0,,,,
-0.041222222,-0.003844444,87.97777778,11.6864,3940.144844,1.762177778,15.30613333,0.676777778,,3940.144844,0,3940.144844,0.977778,0.676023,0.0328418,0.00991241,0.0232558,0.00115682,0,0.000857608,0.000251215,4.80E-05,5.23357
-0.01876087,-0.001514286,81.15047826,11.755,2581.824739,1.820695652,15.96705714,0.647956522,0,3530.493674,0.239130435,2581.824739,0.978261,0.648022,0.0738723,0.0400375,0.136364,0.0177051,0.00958658,0.00811851,0,0,
0.229292683,-0.0044,71.45729268,12.0682439,17.37058537,1.777609756,11.806,0.759878049,0,3500.731463,0.87804878,17.37058537,0.97561,0.761125,0.0466917,0.0327622,0.0512821,0.0255487,0.0174351,0.00811361,0,0,
0.205692308,-0.005,78.55787179,12.51733333,36.78407692,1.694871795,11.0902,0.800794872,0,3495.334692,0.871794872,36.78407692,0.974359,0.8015,0.0666409,0.033636,0.0540541,0.0502751,0.0351945,0.0150805,0,0,
0.244717949,-0.0022,85.37730769,12.25707692,56.25812821,1.658128205,11.6346,0.814128205,1.811176471,3514.808744,0.820512821,56.25812821,0.974359,0.813474,0.0664586,0.0318934,0.027027,0.0591294,0.0440702,0.0150592,0,0,
0.136025641,-0.0086,88.941,12.11405128,91.81969231,1.531076923,11.5044,0.814128205,11.29588235,3550.370308,0.205128205,91.81969231,0.974359,0.813474,0.0664586,0.0318934,0.027027,0.0435395,0.0327089,0.0108305,0,0,
0.25874359,-0.0074,71.40433333,11.99338462,117.9421026,1.427615385,10.9454,0.814128205,14.39735294,3576.492718,0,117.9421026,0.974359,0.813474,0.0664586,0.0318934,0.027027,0.0559906,0.0398111,0.0161795,0,0,
0.234179487,-0.0048,71.84007692,12.0094359,138.3937179,1.377487179,10.975,0.814128205,14.46264706,3596.944333,0,138.3937179,0.974359,0.813474,0.0664586,0.0318934,0.027027,0.0556554,0.0404579,0.0151975,0,0,
0.289128205,0.002,74.76323077,12.01471795,158.9231026,1.396948718,14.3216,0.814128205,19.05647059,3617.473718,0,158.9231026,0.974359,0.813474,0.0664586,0.0318934,0.027027,0.0552994,0.040192,0.0151074,0,0,
0.268333333,-0.0052,71.94287179,11.76302564,178.3441538,1.338846154,12.8194,0.814128205,19.12617647,3636.894769,0,178.3441538,0.974359,0.813474,0.0664586,0.0318934,0.027027,0.0568246,0.041094,0.0157306,0,0,
0.21825641,-0.0052,70.12251282,12.15517949,198.3275385,1.313,13.7918,0.814128205,17.44470588,3656.878154,0,198.3275385,0.974359,0.813474,0.0664586,0.0318934,0.027027,0.0550979,0.0401122,0.0149857,0,0,
0.275435897,-0.0016,70.68623077,12.04671795,218.6104103,1.327461538,14.0002,0.822461538,17.04735294,3677.161026,0,218.6104103,0.974359,0.822026,0.0441915,0.0212075,0.027027,0.0247485,0.0179407,0.00680778,0,0,
0.257615385,-0.0022,70.32741026,12.06471795,238.5491538,1.285666667,13.2246,0.822461538,16.87588235,3697.099769,0,238.5491538,0.974359,0.822026,0.0441915,0.0212075,0.027027,0.0247111,0.0179461,0.00676509,0,0,
0.28574359,-0.0018,70.01979487,12.18697436,259.5831026,1.250820513,12.0306,0.840512821,16.64676471,3718.133718,0,259.5831026,0.974359,0.840553,0.0588561,0.033428,0.0540541,0.0358517,0.0259357,0.00991598,0,0,
0.253473684,-0.0052,71.44142105,12.29642105,279.3362105,1.236289474,11.26,0.877605263,16.49393939,3724.502342,0,279.3362105,0.973684,0.876919,0.0668906,0.0321667,0.0277778,0.0568964,0.0420393,0.0148571,0,0,
0.299894737,-0.0046,68.99431579,12.141,299.2851579,1.221157895,10.5094,0.877605263,20.18030303,3744.451289,0,299.2851579,0.973684,0.876919,0.0668906,0.0321667,0.0277778,0.0554897,0.041199,0.0142906,0,0,
0.263105263,-0.0016,65.62613158,11.75210526,320.4278158,1.202421053,9.561,0.877605263,19.7530303,3765.593947,0,320.4278158,0.973684,0.876919,0.0668906,0.0321667,0.0277778,0.0552307,0.0409918,0.014239,0,0,
0.277157895,-0.0016,68.17855263,11.70668421,341.3938947,1.182210526,9.0656,0.877605263,18.15454545,3786.560026,0,341.3938947,0.973684,0.876919,0.0668906,0.0321667,0.0277778,0.0548964,0.0407667,0.0141296,0,0,
0.247710526,-0.0056,72.80965789,11.66226316,361.3344737,1.164973684,8.5234,0.877605263,17.88575758,3806.500605,0,361.3344737,0.973684,0.876919,0.0668906,0.0321667,0.0277778,0.0562349,0.0415332,0.0147017,0,0,
0.275578947,-0.0056,69.07321053,11.96005263,380.8760789,1.150447368,8.0648,0.877605263,17.71666667,3826.042211,0,380.8760789,0.973684,0.876919,0.0668906,0.0321667,0.0277778,0.0560535,0.0415324,0.0145211,0,0,
0.229315789,-0.0034,66.86278947,11.88210526,401.0577895,1.134815789,7.556,0.877605263,17.58545455,3846.223921,0,401.0577895,0.973684,0.876919,0.0668906,0.0321667,0.0277778,0.0555849,0.0411494,0.0144355,0,0,
0.271236842,0,67.07334211,11.81547368,421.2054211,1.121526316,7.1232,0.877605263,17.48818182,3866.371553,0,421.2054211,0.973684,0.876919,0.0668906,0.0321667,0.0277778,0.0553437,0.041028,0.0143157,0,0,
0.259684211,-0.0048,68.75752632,11.92884211,441.4414211,1.109578947,6.7834,0.877605263,17.40727273,3886.607553,0,441.4414211,0.973684,0.876919,0.0668906,0.0321667,0.0277778,0.0556426,0.0412494,0.0143931,0,0,
0.262315789,0.0008,70.28371053,11.86863158,461.5246316,1.097842105,6.4634,0.877605263,17.33424242,3906.690763,0,461.5246316,0.973684,0.876919,0.0668906,0.0321667,0.0277778,0.0557971,0.041268,0.0145291,0,0,
0.234710526,-0.0058,71.41521053,11.85857895,481.3922368,1.087447368,6.1994,0.877605263,17.27636364,3926.558368,0,481.3922368,0.973684,0.876919,0.0668906,0.0321667,0.0277778,0.0557395,0.0420112,0.0137282,0,0,
0.266868421,-0.0062,72.46773684,11.84084211,501.9983421,1.077631579,5.9548,0.877605263,17.22575758,3947.164474,0,501.9983421,0.973684,0.876919,0.0668906,0.0321667,0.0277778,0.0552543,0.0416293,0.0136249,0,0,
0.237657895,0.0002,71.65192105,11.83415789,522.1494737,1.068710526,5.791,0.877605263,17.15181818,3967.315605,0,522.1494737,0.973684,0.876919,0.0668906,0.0321667,0.0277778,0.0558326,0.0420209,0.0138117,0,0,
0.256368421,-0.0076,69.94163158,11.85078947,542.6926842,1.0595,5.708,0.877605263,17.06424242,3987.858816,0,542.6926842,0.973684,0.876919,0.0668906,0.0321667,0.0277778,0.0556008,0.0419318,0.0136689,0,0,
0.2715,0.0028,69.62568421,11.81089474,563.2614737,1.050815789,5.5512,0.877605263,17.03848485,4008.427605,0,563.2614737,0.973684,0.876919,0.0668906,0.0321667,0.0277778,0.0555417,0.0417844,0.0137573,0,0,
0.284157895,-0.0004,71.80976316,11.85189474,582.9270263,1.043157895,5.4148,0.877605263,17.00606061,4028.093158,0,582.9270263,0.973684,0.876919,0.0668906,0.0321667,0.0277778,0.0560917,0.0421458,0.0139459,0,0,
0.313210526,-0.014,67.70484211,11.90094737,602.8116053,1.035526316,5.2946,0.877605263,16.99787879,4047.977737,0,602.8116053,0.973684,0.876919,0.0668906,0.0321667,0.0277778,0.0558582,0.0420672,0.013791,0,0,
0.245710526,-0.0014,68.38905263,11.89947368,623.3327895,1.028210526,5.1774,0.877605263,17.01424242,4068.498921,0,623.3327895,0.973684,0.876919,0.0668906,0.0321667,0.0277778,0.0557919,0.0419865,0.0138054,0,0,
0.280368421,-0.0026,71.33613158,11.87084211,643.2343158,1.022,5.0794,0.877605263,16.99151515,4088.400447,0,643.2343158,0.973684,0.876919,0.0668906,0.0321667,0.0277778,0.0559038,0.0419746,0.0139292,0,0,
0.249026316,-0.0082,69.5995,11.82321053,662.7775789,1.016447368,5.033,0.877605263,16.97181818,4107.943711,0,662.7775789,0.973684,0.876919,0.0668906,0.0321667,0.0277778,0.0558137,0.0420119,0.0138017,0,0,
0.247052632,-0.0068,66.91536842,11.79357895,683.6180263,1.010447368,4.9866,0.877605263,16.94969697,4128.784158,0,683.6180263,0.973684,0.876919,0.0668906,0.0321667,0.0277778,0.0554378,0.0418154,0.0136224,0,0,
0.192555556,-0.0086,69.07772222,11.78594444,702.7079722,1.007111111,4.9238,0.908694444,16.92645161,4118.874389,0,702.7079722,0.972222,0.908857,0.0876313,0.0456293,0.0588235,0.0848571,0.0666772,0.0181799,0,0,
0.20875,-0.0044,66.57788889,11.78366667,721.9570278,1.002388889,4.8802,0.932166667,16.90870968,4138.123444,0,721.9570278,0.972222,0.931143,0.0915992,0.0442466,0.0294118,0.100654,0.0793433,0.0213109,0,0,
0.254472222,-0.0088,66.49461111,11.81722222,740.9533889,0.99825,4.8788,0.932166667,16.89967742,4157.119806,0,740.9533889,0.972222,0.931143,0.0915992,0.0442466,0.0294118,0.10186,0.0803078,0.0215525,0,0,
0.270361111,-0.0056,63.32825,11.7845,761.0215556,0.993611111,4.853,0.932166667,16.87709677,4177.187972,0,761.0215556,0.972222,0.931143,0.0915992,0.0442466,0.0294118,0.100272,0.0792585,0.0210136,0,0,
0.325972222,-0.0048,63.91144444,11.89361111,781.2706389,0.989416667,4.813,0.932166667,16.84903226,4197.437056,0,781.2706389,0.972222,0.931143,0.0915992,0.0442466,0.0294118,0.100732,0.0795462,0.0211857,0,0,
0.328305556,-0.0132,66.21683333,11.78133333,800.9408889,0.984416667,4.783,0.932166667,16.8316129,4217.107306,0,800.9408889,0.972222,0.931143,0.0915992,0.0442466,0.0294118,0.100671,0.0793454,0.0213259,0,0,
0.305621622,-0.0052,68.72410811,11.79945946,821.0218108,0.979513514,4.7612,0.901513514,16.81125,4252.079973,0,821.0218108,0.972973,0.899667,0.0829406,0.0344234,0.0571429,0.0798612,0.060711,0.0191502,0,0,
0.308526316,-0.6978,71.41528947,11.92421053,841.4533158,0.983,5.9996,0.869052632,16.80030303,4286.619447,0,841.4533158,0.973684,0.868135,0.0894185,0.043,0.0277778,0.0998852,0.076741,0.0231442,0,0,
0.218789474,-0.0018,70.38894737,11.90868421,861.4346316,1.150657895,16.1794,0.869052632,16.79090909,4306.600763,0,861.4346316,0.973684,0.868135,0.0894185,0.043,0.0277778,0.0993409,0.0764709,0.0228701,0,0,
0.269868421,-0.0024,68.17865789,11.85363158,881.9881579,1.240368421,23.3586,0.860631579,16.77787879,4327.154289,0.131578947,881.9881579,0.973684,0.859486,0.1116,0.0536667,0.0277778,0.153824,0.118628,0.0351958,0,0,
0.294131579,-0.0076,68.96813158,11.90794737,902.3328158,1.269473684,19.7182,0.860631579,16.76454545,4347.498947,0.131578947,902.3328158,0.973684,0.859486,0.1116,0.0536667,0.0277778,0.155015,0.119174,0.035841,0,0,
0.425552632,-0.0318,98.91534211,11.83673684,921.9744737,1.491763158,27.697,0.860631579,16.75424242,4367.140605,0.131578947,921.9744737,0.973684,0.859486,0.1116,0.0536667,0.0277778,0.154759,0.119085,0.0356743,0,0,
0.276578947,-0.0056,71.23097368,11.89505263,942.0509211,1.578605263,24.0508,0.860631579,16.74727273,4387.217053,0.131578947,942.0509211,0.973684,0.859486,0.1116,0.0536667,0.0277778,0.154447,0.118805,0.0356427,0,0,
0.248378378,-0.0062,72.85913514,11.84378378,960.4027838,1.497837838,27.4896,0.86827027,16.7490625,4391.460946,0.135135135,960.4027838,0.972973,0.867306,0.118765,0.0566024,0.0857143,0.165993,0.130696,0.0352969,0,0,
0.286684211,-0.0058,68.59968421,11.76605263,980.9626316,1.417342105,21.8644,0.869052632,16.74333333,4426.128763,0.131578947,980.9626316,0.973684,0.868135,0.0894185,0.043,0.0277778,0.0989335,0.0762481,0.0226854,0,0,
0.347210526,-0.0072,68.31039474,11.80905263,1001.857395,1.391368421,21.0924,0.869052632,16.73363636,4447.023526,0.131578947,1001.857395,0.973684,0.868135,0.0894185,0.043,0.0277778,0.0991501,0.0763651,0.022785,0,0,
0.281236842,-0.008,70.25728947,11.90063158,1022.176632,1.299657895,20.5814,0.869052632,16.69424242,4467.342763,0.131578947,1022.176632,0.973684,0.868135,0.0894185,0.043,0.0277778,0.0993203,0.0763932,0.0229272,0,0,
0.217578947,-0.0024,93.80928947,11.86657895,1042.303947,1.390894737,23.0964,0.869052632,16.67757576,4487.470079,0.131578947,1042.303947,0.973684,0.868135,0.0894185,0.043,0.0277778,0.0994443,0.077013,0.0224313,0,0,
0.272789474,-0.0068,79.07321053,11.89621053,1062.293763,1.303315789,21.6216,0.869052632,16.64121212,4507.459895,0.131578947,1062.293763,0.973684,0.868135,0.0894185,0.043,0.0277778,0.0991329,0.0766826,0.0224504,0,0,
0.311421053,-0.005,71.09934211,11.95305263,1082.106921,1.253263158,19.879,0.869052632,16.61878788,4527.273053,0.131578947,1082.106921,0.973684,0.868135,0.0894185,0.043,0.0277778,0.100933,0.0781753,0.0227573,0,0,
0.2685,-0.0038,70.02047368,11.89468421,1102.433,1.186710526,18.992,0.869052632,16.59393939,4547.599132,0.078947368,1102.433,0.973684,0.868135,0.0894185,0.043,0.0277778,0.0994791,0.077106,0.0223731,0,0,
0.243605263,-0.0028,75.07307895,11.85968421,1122.762368,1.195078947,18.9676,0.877605263,16.57030303,4567.9285,0.131578947,1122.762368,0.973684,0.876919,0.0668906,0.0321667,0.0277778,0.056138,0.0433812,0.0127568,0,0,
0.307871795,-0.0052,69.19933333,12.09461538,1143.981846,1.165461538,18.4914,0.843794872,20.42323529,4602.532462,0,1143.981846,0.974359,0.842237,0.0597198,0.023674,0.0540541,0.0398758,0.0301147,0.00976107,0,0,
0.2807,-0.0042,72.36885,12.2053,1166.0936,1.402375,25.246,0.8115,21.73828571,4637.359475,0.125,1166.0936,0.975,0.810795,0.0463835,0.0147978,0.0526316,0.02247,0.0166894,0.00578059,0,0,
0.229195122,-0.0092,80.23707317,12.02858537,1185.932366,1.306317073,23.381,0.77095122,18.00222222,4669.293244,0.12195122,1185.932366,0.97561,0.76925,0.0268077,0.0146068,0.0512821,0.00733613,0.00526922,0.0020669,0,0,
0.224209302,-0.0042,81.9695814,12.05976744,1206.552163,1.244023256,22.1948,0.73672093,17.59315789,4712.415372,0.11627907,1206.552163,0.976744,0.735833,0.0402934,0.0174929,0.0731707,0.0143916,0.00955886,0.00483272,0,0,
0.236190476,-0.0032,80.94540476,11.99614286,1225.923214,1.374928571,20.5292,0.726642857,17.28513514,4720.803143,0.119047619,1225.923214,0.97619,0.727049,0.0432273,0.0227689,0.05,0.0179358,0.0120063,0.00592955,0,0,
0.265853659,-0.0042,79.28592683,11.80926829,1244.920512,1.501170732,20.0038,0.77095122,17.16805556,4728.28139,0.12195122,1244.920512,0.97561,0.770875,0.0546819,0.0327622,0.0512821,0.0327128,0.0234551,0.00925768,0,0,
0.317487179,-0.0064,70.25053846,11.89164103,1263.303538,1.531846154,18.782,0.814076923,17.07617647,4721.854154,0.128205128,1263.303538,0.974359,0.815132,0.0695445,0.044988,0.0810811,0.0566479,0.0429997,0.0136482,0,0,
0.289315789,-0.0052,70.83623684,11.88989474,1282.388868,1.567710526,18.4246,0.855578947,16.9430303,4727.555,0.131578947,1282.388868,0.973684,0.856027,0.0881686,0.0443032,0.0555556,0.091459,0.069998,0.021461,0,0,
0.285894737,-0.0064,70.07321053,11.84205263,1302.645079,1.573210526,18.0228,0.869052632,16.80666667,4747.811211,0.131578947,1302.645079,0.973684,0.868135,0.0894185,0.043,0.0277778,0.0995067,0.0772689,0.0222378,0,0,
0.249657895,-0.0046,77.38894737,11.86557895,1323.517842,1.562789474,19.8352,0.867368421,16.75424242,4768.683974,0.131578947,1323.517842,0.973684,0.866405,0.0893444,0.0340474,0.0555556,0.0985634,0.0763708,0.0221926,0,0,
0.285717949,0.0002,71.96838462,12.02794872,1344.870154,1.493666667,19.2472,0.828897436,16.71,4803.420769,0.128205128,1344.870154,0.974359,0.826947,0.0763045,0.0335841,0.0540541,0.0698666,0.0529314,0.0169352,0,0,
0.296641026,-0.0028,71.12217949,11.86128205,1365.416,1.507153846,21.798,0.814128205,16.68058824,4823.966615,0.128205128,1365.416,0.974359,0.813474,0.0664586,0.0318934,0.027027,0.0558984,0.0424069,0.0134915,0,0,
0.25325641,-0.0124,72.68615385,11.82574359,1385.447462,1.451692308,20.6892,0.814128205,16.66735294,4843.998077,0.128205128,1385.447462,0.974359,0.813474,0.0664586,0.0318934,0.027027,0.0571269,0.0432309,0.013896,0,0,
0.3001,-0.0096,73.1689,11.89185,1407.006375,1.554375,23.7808,0.81475,16.60971429,4878.27225,0.125,1407.006375,0.975,0.814128,0.0547108,0.0297096,0.131579,0.0332061,0.0247001,0.008506,0,0,
0.264025641,-0.0004,78.58323077,11.96046154,1425.887487,1.427435897,20.891,0.809128205,16.56941176,4884.438103,0.128205128,1425.887487,0.974359,0.808342,0.0668072,0.0352926,0.0810811,0.0532219,0.0401319,0.01309,0,0,
0.226974359,-0.0038,77.96797436,11.90569231,1445.007462,1.386051282,19.8692,0.822461538,16.54705882,4903.558077,0.128205128,1445.007462,0.974359,0.822026,0.0441915,0.0212075,0.027027,0.0251651,0.0190133,0.00615177,0,0,
0.328,-0.0018,71.32741026,11.89517949,1464.674897,1.503179487,20.5572,0.822461538,16.54,4923.225513,0.128205128,1464.674897,0.974359,0.822026,0.0441915,0.0212075,0.027027,0.0249983,0.0189538,0.00604447,0,0,
0.305692308,-0.0078,68.60966667,11.99179487,1485.308487,1.446538462,18.9504,0.819128205,16.54323529,4943.859103,0.128205128,1485.308487,0.974359,0.818605,0.0543734,0.026041,0.0810811,0.0358034,0.0277612,0.00804219,0,0,
0.273230769,-0.0034,71.55815385,11.84369231,1506.661692,1.450205128,20.6458,0.822461538,16.55264706,4965.212308,0.128205128,1506.661692,0.974359,0.822026,0.0441915,0.0212075,0.027027,0.0244389,0.0189558,0.00548316,0,0,
0.204589744,-0.0028,74.55766667,11.80189744,1526.577385,1.47674359,21.5486,0.817461538,16.55794118,4985.128,0.128205128,1526.577385,0.974359,0.816895,0.0587302,0.0237475,0.0540541,0.0430448,0.0332345,0.00981037,0,0,
0.233871795,-0.0048,69.0195641,11.88225641,1546.694795,1.530051282,21.3812,0.814128205,16.56235294,5005.24541,0.128205128,1546.694795,0.974359,0.813474,0.0664586,0.0318934,0.027027,0.0560985,0.043432,0.0126665,0,0,
0.240974359,-0.0052,79.68564103,12.00825641,1566.623615,1.523358974,19.626,0.814128205,16.55882353,5025.174231,0.128205128,1566.623615,0.974359,0.813474,0.0664586,0.0318934,0.027027,0.0562358,0.0434772,0.0127586,0,0,
0.2437,-0.006,80.243375,11.5992,1587.30645,1.6878,22.4344,0.796875,16.55285714,5058.572325,0.125,1587.30645,0.975,0.795795,0.0652635,0.0378835,0.131579,0.0455437,0.0343464,0.0111974,0,0,
0.282692308,-0.0024,106.5063077,11.77923077,1605.025641,1.76625641,22.1004,0.807461538,16.54264706,5063.576256,0.435897436,1605.025641,0.974359,0.808342,0.0668072,0.033636,0.0540541,0.0536145,0.0413556,0.0122589,0,0,
0.101717949,-0.0084,72.96830769,11.88820513,1624.304385,2.110871795,22.0412,0.814128205,16.56147059,5082.855,1,1624.304385,0.974359,0.813474,0.0664586,0.0318934,0.027027,0.0569012,0.0439771,0.0129242,0,0,
0.190128205,-0.0086,74.96828205,11.86097436,1644.19359,2.271538462,20.674,0.814128205,16.56411765,5102.744205,1,1644.19359,0.974359,0.813474,0.0664586,0.0318934,0.027027,0.0565645,0.0437012,0.0128634,0,0,
0.260333333,-0.006,74.17348718,11.81394872,1663.938795,2.382820513,21.0842,0.814128205,16.54294118,5122.48941,1,1663.938795,0.974359,0.813474,0.0664586,0.0318934,0.027027,0.0565263,0.043687,0.0128393,0,0,
0.225923077,-0.0056,70.50692308,11.9094359,1684.48141,2.155692308,19.5556,0.814128205,16.53970588,5143.032026,1,1684.48141,0.974359,0.813474,0.0664586,0.0318934,0.027027,0.0559832,0.0433922,0.012591,0,0,
0.211641026,-0.0084,71.84007692,11.93430769,1705.047154,2.021435897,20.492,0.814128205,16.53441176,5163.597769,1,1705.047154,0.974359,0.813474,0.0664586,0.0318934,0.027027,0.0569196,0.0440029,0.0129168,0,0,
0.279589744,-0.0096,74.50666667,11.91928205,1725.387923,1.899076923,20.063,0.814128205,16.52058824,5183.938538,1,1725.387923,0.974359,0.813474,0.0664586,0.0318934,0.027027,0.0562698,0.0435116,0.0127582,0,0,
0.247974359,-0.0072,76.917,11.98374359,1745.164615,1.809076923,20.0576,0.814128205,16.49823529,5203.715231,0.820512821,1745.164615,0.974359,0.813474,0.0664586,0.0318934,0.027027,0.0564593,0.0435959,0.0128634,0,0,
0.301923077,-0.002,69.27623077,12.05594872,1764.89341,1.707666667,19.3872,0.814128205,16.48882353,5223.444026,0.205128205,1764.89341,0.974359,0.813474,0.0664586,0.0318934,0.027027,0.0560935,0.0433826,0.0127109,0,0,
0.291512821,-0.0034,71.19917949,12.02861538,1785.048872,1.83374359,23.0162,0.814128205,16.47911765,5243.599487,0.128205128,1785.048872,0.974359,0.813474,0.0664586,0.0318934,0.027027,0.0557976,0.0431637,0.0126339,0,0,
0.224076923,-0.0008,77.48046154,11.90220513,1804.444949,1.83274359,21.8886,0.814128205,16.47411765,5262.995564,0.179487179,1804.444949,0.974359,0.813474,0.0664586,0.0318934,0.027027,0.0565323,0.0435903,0.012942,0,0,
0.281205128,-0.0042,76.32702564,11.98194872,1823.803179,1.812461538,20.759,0.814128205,16.47264706,5282.353795,0.794871795,1823.803179,0.974359,0.813474,0.0664586,0.0318934,0.027027,0.0564387,0.0436157,0.0128231,0,0,
0.246051282,0.0018,71.32723077,11.89682051,1843.513692,1.912846154,19.9762,0.814128205,16.50235294,5302.064308,1,1843.513692,0.974359,0.813474,0.0664586,0.0318934,0.027027,0.0568634,0.0438908,0.0129726,0,0,
0.258717949,-0.0056,72.48120513,11.98189744,1863.425897,2.138897436,19.9176,0.814128205,16.50558824,5321.976513,1,1863.425897,0.974359,0.813474,0.0664586,0.0318934,0.027027,0.0562706,0.0435053,0.0127653,0,0,
0.211282051,-0.0064,73.45558974,11.992,1883.248897,2.492897436,20.094,0.814128205,20.25911765,5341.799513,1,1883.248897,0.974359,0.813474,0.0664586,0.0318934,0.027027,0.0564152,0.0435781,0.0128371,0,0,
0.184641026,-0.0052,73.07084615,12.02651282,1903.105077,3.713512821,20.4002,0.814128205,18.97264706,5361.655692,1,1903.105077,0.974359,0.813474,0.0664586,0.0318934,0.027027,0.0564489,0.0442861,0.0121628,0,0,
0.303820513,-0.0054,72.25035897,11.98641026,1922.822179,4.827820513,19.736,0.814128205,18.405,5381.372795,1,1922.822179,0.974359,0.813474,0.0664586,0.0318934,0.027027,0.0562331,0.0441371,0.012096,0,0,
0.203358974,-0.0054,72.71207692,11.85441026,1942.759333,4.901820513,21.605,0.814128205,22.23676471,5401.309949,1,1942.759333,0.974359,0.813474,0.0664586,0.0318934,0.027027,0.0566566,0.0443865,0.0122702,0,0,
0.231487179,-0.0088,70.91725641,12.03328205,1962.380436,4.721846154,21.4274,0.814128205,19.90823529,5420.931051,1,1962.380436,0.974359,0.813474,0.0664586,0.0318934,0.027027,0.0563325,0.0442237,0.0121088,0,0,
0.328461538,-0.0098,72.55833333,12.09210256,1982.449923,3.972179487,21.6722,0.814128205,19.26176471,5441.000538,1,1982.449923,0.974359,0.813474,0.0664586,0.0318934,0.027027,0.0564659,0.0443224,0.0121435,0,0,
0.332897436,-0.0046,73.84023077,12.09923077,2002.362282,3.301153846,21.2604,0.814128205,18.85,5460.912897,1,2002.362282,0.974359,0.813474,0.0664586,0.0318934,0.027027,0.0564593,0.0442732,0.0121861,0,0,
0.256051282,-0.0106,72.66089744,11.99441026,2022.436744,2.831461538,22.0326,0.819051282,18.52029412,5480.987359,1,2022.436744,0.974359,0.818526,0.0706226,0.0382099,0.135135,0.0592902,0.0466411,0.0126491,0,0,
0.232717949,-0.0052,70.94289744,12.06533333,2043.194385,2.476974359,20.8932,0.82725641,18.25205882,5501.745,1,2043.194385,0.974359,0.826947,0.0763045,0.0449492,0.0810811,0.0653711,0.0515496,0.0138214,0,0,
0.273461538,-0.0136,71.302,12.04030769,2063.703846,2.222179487,19.9148,0.82725641,18.01,5522.254462,1,2063.703846,0.974359,0.826947,0.0763045,0.0382099,0.135135,0.0680268,0.0530251,0.0150016,0,0,
0.260128205,-0.0058,70.66079487,12.02194872,2084.254744,2.061230769,19.4288,0.832179487,17.80911765,5542.805359,1,2084.254744,0.974359,0.832,0.0790781,0.0437005,0.0540541,0.0718756,0.0567071,0.0151686,0,0,
0.216710526,-0.0048,68.36265789,12.03063158,2102.188421,2.024026316,19.1298,0.869052632,17.63393939,5547.354553,1,2102.188421,0.973684,0.868135,0.0894185,0.043,0.0277778,0.101611,0.0812151,0.0203961,0,0,
0.2,-0.0048,67.67873684,12.04157895,2121.842079,2.118342105,23.3218,0.875894737,17.47515152,5567.008211,1,2121.842079,0.973684,0.875162,0.0720507,0.0443437,0.0555556,0.0638325,0.0512298,0.0126027,0,0,
0.214921053,-0.0076,66.67865789,12.02821053,2142.614605,2.095473684,20.7314,0.870763158,17.33,5587.780737,1,2142.614605,0.973684,0.869892,0.085464,0.0443437,0.0555556,0.0899996,0.0721521,0.0178475,0,0,
0.264131579,-0.0054,70.86260526,12.02468421,2162.989868,1.955815789,20.6114,0.877605263,17.19484848,5608.156,1,2162.989868,0.973684,0.876919,0.0668906,0.0321667,0.0277778,0.0562009,0.0450448,0.0111562,0,0,
0.237,-0.0104,72.78339474,12.10573684,2182.7165,1.971868421,22.5314,0.877605263,17.07030303,5627.882632,1,2182.7165,0.973684,0.876919,0.0668906,0.0321667,0.0277778,0.0569832,0.0455464,0.0114368,0,0,
0.242789474,-0.007,67.94171053,12.03821053,2202.740263,1.810973684,20.5652,0.864131579,16.95545455,5647.906395,0.763157895,2202.740263,0.973684,0.863081,0.0666777,0.038598,0.138889,0.0466887,0.0375063,0.00918242,0,0,
0.313,-0.0086,69.38889474,12.03468421,2223.168053,1.736052632,20.1586,0.877605263,16.8669697,5668.334184,0.157894737,2223.168053,0.973684,0.876919,0.0668906,0.0321667,0.0277778,0.0566684,0.0462844,0.010384,0,0,
0.300684211,-0.009,77.67834211,12.09563158,2242.796237,1.666052632,19.2506,0.877605263,16.80181818,5687.962368,0.131578947,2242.796237,0.973684,0.876919,0.0668906,0.0321667,0.0277778,0.0564514,0.0461563,0.010295,0,0,
0.270526316,-0.006,68.52071053,12.07394737,2263.327632,1.616894737,18.5308,0.869052632,16.74909091,5708.493763,0.052631579,2263.327632,0.973684,0.868135,0.0894185,0.043,0.0277778,0.100579,0.082314,0.018265,0,0,
0.247,-0.0092,68.44165789,12.03873684,2283.674053,1.570552632,18.4574,0.869052632,16.67515152,5728.840184,0,2283.674053,0.973684,0.868135,0.0894185,0.043,0.0277778,0.1005,0.0821913,0.0183091,0,0,
0.271684211,-0.0092,68.86273684,12.01215789,2303.777579,1.538842105,19.1106,0.869052632,16.62848485,5748.943711,0,2303.777579,0.973684,0.868135,0.0894185,0.043,0.0277778,0.100651,0.0823126,0.018338,0,0,
0.278894737,-0.0042,70.59928947,11.96742105,2323.82,1.520526316,20.1878,0.869052632,16.56848485,5768.986132,0,2323.82,0.973684,0.868135,0.0894185,0.043,0.0277778,0.100324,0.0820455,0.0182781,0,0,
0.294736842,-0.012,71.96768421,12.04931579,2343.903184,1.485657895,20.1804,0.869052632,16.48060606,5789.069316,0,2343.903184,0.973684,0.868135,0.0894185,0.043,0.0277778,0.100491,0.0821282,0.0183631,0,0,
0.285153846,-0.0054,92.65846154,12.18748718,2365.639333,1.444076923,20.5232,0.838871795,16.41176471,5824.189949,0,2365.639333,0.974359,0.837184,0.0569361,0.023674,0.0540541,0.0361858,0.0286113,0.00757451,0,0,
0.199625,-0.0028,75.8434,12.4206,2388.64995,1.429325,21.0778,0.803375,19.20771429,5859.915825,0,2388.64995,0.975,0.802462,0.0464071,0.0147978,0.0526316,0.0216896,0.0167596,0.00492999,0,0,
0.214585366,-0.0096,78.28597561,12.09278049,2410.840317,1.433219512,20.5528,0.758268293,18.43111111,5894.201195,0,2410.840317,0.97561,0.757875,0.0432062,0.0206565,0.025641,0.0247546,0.0189063,0.00584833,0,0,
0.237775,-0.0064,78.892775,12.0945,2427.66615,2.109475,26.4884,0.774125,17.79942857,5898.932025,0.75,2427.66615,0.975,0.774128,0.0574581,0.0331904,0.0526316,0.0362485,0.0278213,0.00842722,0,0,
0.153153846,-0.0044,79.42938462,12.23641026,2444.789154,2.371615385,24.369,0.809205128,17.53117647,5903.339769,1,2444.789154,0.974359,0.808421,0.0804432,0.0335841,0.0540541,0.0811302,0.0649437,0.0161865,0,0,
0.291684211,-0.0042,76.94102632,12.15673684,2462.589158,2.291,23.2714,0.823578947,17.34333333,5907.755289,1,2462.589158,0.973684,0.823162,0.101187,0.0547164,0.0555556,0.121088,0.0983901,0.0226982,0,0,
0.246210526,-0.0068,74.30994737,11.78589474,2482.025447,2.152236842,22.5654,0.860631579,17.17848485,5927.191579,1,2482.025447,0.973684,0.859486,0.1116,0.0536667,0.0277778,0.156459,0.1279,0.0285593,0,0,
0.298736842,-0.0056,70.81,12.05384211,2501.955789,1.999447368,21.8908,0.860631579,17.03666667,5947.121921,1,2501.955789,0.973684,0.859486,0.1116,0.0536667,0.0277778,0.157137,0.128468,0.028669,0,0,
0.332368421,0.0016,71.04694737,12.11352632,2522.329368,1.896526316,23.1696,0.869052632,16.91939394,5967.4955,1,2522.329368,0.973684,0.868135,0.0894185,0.043,0.0277778,0.0996064,0.0815635,0.0180429,0,0,
0.288842105,-0.0032,95.23071053,12.04389474,2543.1375,1.877921053,25.7204,0.869052632,16.84,5988.303632,1,2543.1375,0.973684,0.868135,0.0894185,0.043,0.0277778,0.100495,0.0827855,0.0177094,0,0,
0.227487179,-0.0024,75.22430769,12.07717949,2565.098436,1.836512821,24.4706,0.833820513,16.77264706,6023.649051,0.435897436,2565.098436,0.974359,0.832,0.0945038,0.0461642,0.108108,0.108846,0.0876102,0.0212356,0,0,
0.284717949,-0.0024,77.01923077,12.00620513,2585.692308,1.808025641,22.1368,0.814128205,16.69058824,6044.242923,0.128205128,2585.692308,0.974359,0.813474,0.0664586,0.0318934,0.027027,0.0557392,0.0450381,0.0107011,0,0,
0.258897436,-0.0038,74.53225641,11.76902564,2605.811359,1.762589744,23.7122,0.814128205,16.61147059,6064.361974,0.128205128,2605.811359,0.974359,0.813474,0.0664586,0.0318934,0.027027,0.0566403,0.045568,0.0110723,0,0,
0.311076923,-0.0032,73.37835897,11.52092308,2624.989205,1.691153846,22.1916,0.814128205,16.54029412,6083.539821,0.128205128,2624.989205,0.974359,0.813474,0.0664586,0.0318934,0.027027,0.0572189,0.0460641,0.0111548,0,0,
0.307948718,-0.006,71.27610256,11.7234359,2645.750179,1.684615385,21.2744,0.82574359,16.49029412,6104.300795,0.128205128,2645.750179,0.974359,0.825395,0.0477502,0.0259068,0.0810811,0.0262062,0.0211615,0.00504467,0,0,
0.305947368,-0.0064,68.02068421,11.86563158,2664.706289,1.671,20.5634,0.864131579,16.43666667,6109.872421,0.131578947,2664.706289,0.973684,0.864811,0.0668655,0.0370948,0.111111,0.0498433,0.0406006,0.00924272,0,0,
0.273421053,-0.005,69.86260526,11.85421053,2685.059421,1.660526316,19.7606,0.869052632,16.37272727,6130.225553,0.184210526,2685.059421,0.973684,0.868135,0.0894185,0.043,0.0277778,0.101477,0.0834941,0.0179834,0,0,
0.283974359,-0.0072,76.84012821,11.94128205,2707.229103,2.197128205,19.2134,0.842025641,16.34294118,6165.779718,0.717948718,2707.229103,0.974359,0.840421,0.0827956,0.0335841,0.0540541,0.0831246,0.0668318,0.0162928,0,0,
0.27874359,-0.0056,72.91717949,12.05579487,2727.460667,2.502128205,18.8984,0.814128205,16.30852941,6186.011282,0.871794872,2727.460667,0.974359,0.813474,0.0664586,0.0318934,0.027027,0.0564181,0.0455102,0.0109079,0,0,
0.245358974,-0.0044,71.14794872,11.96948718,2747.857692,2.898974359,18.308,0.814128205,20.39088235,6206.408308,0.871794872,2747.857692,0.974359,0.813474,0.0664586,0.0318934,0.027027,0.0572089,0.0460896,0.0111193,0,0,
0.277487179,-0.003,72.32738462,12.07461538,2768.047949,3.429615385,17.8666,0.814128205,17.67676471,6226.598564,0.871794872,2768.047949,0.974359,0.813474,0.0664586,0.0318934,0.027027,0.0563694,0.0454545,0.0109149,0,0,
0.283794872,-0.0056,71.45564103,12.04451282,2787.920615,3.347923077,17.8448,0.82725641,17.33529412,6246.471231,0.871794872,2787.920615,0.974359,0.826947,0.0763045,0.0437005,0.0540541,0.067838,0.0544356,0.0134024,0,0,
0.261526316,-0.0082,68.04718421,12.09126316,2805.784342,3.057473684,17.7814,0.865684211,17.17545455,6250.950474,0.868421053,2805.784342,0.973684,0.866405,0.0893444,0.0443032,0.0555556,0.0984634,0.0809822,0.0174812,0,0,
0.224473684,-0.0006,78.46718421,12.019,2825.801342,2.921,25.6272,0.869052632,17.06090909,6270.967474,1,2825.801342,0.973684,0.868135,0.0894185,0.043,0.0277778,0.100507,0.0827147,0.0177922,0,0,
0.300236842,-0.0064,69.4415,11.97857895,2846.091632,2.536368421,22.5988,0.869052632,16.97121212,6291.257763,1,2846.091632,0.973684,0.868135,0.0894185,0.043,0.0277778,0.100775,0.082969,0.0178057,0,0,
0.246789474,-0.0028,75.83560526,12.04110526,2866.611184,2.292605263,22.04,0.869052632,16.88,6311.777316,1,2866.611184,0.973684,0.868135,0.0894185,0.043,0.0277778,0.100465,0.0843406,0.0161242,0,0,
0.264307692,-0.0064,72.78871795,12.02287179,2889.495462,2.096538462,21.5684,0.846948718,16.79352941,6348.046077,0.871794872,2889.495462,0.974359,0.845474,0.0845355,0.0335841,0.0540541,0.0864774,0.0705161,0.0159613,0,0,
0.309205128,-0.011,73.89125641,12.06969231,2909.991795,1.984,22.223,0.814128205,16.72117647,6368.54241,0.897435897,2909.991795,0.974359,0.813474,0.0664586,0.0318934,0.027027,0.0565826,0.0464639,0.0101187,0,0,
0.274897436,-0.0046,76.73710256,11.95923077,2929.204282,1.968102564,21.0098,0.814128205,16.665,6387.754897,0.897435897,2929.204282,0.974359,0.813474,0.0664586,0.0318934,0.027027,0.0570359,0.0467358,0.0103001,0,0,
0.284435897,-0.0072,78.86530769,11.97492308,2948.086,2.098820513,23.4178,0.814128205,16.61088235,6406.636615,1,2948.086,0.974359,0.813474,0.0664586,0.0318934,0.027027,0.0568575,0.0466642,0.0101932,0,0,
0.237615385,-0.004,70.89146154,12.00184615,2967.83459,2.255205128,21.5952,0.814128205,16.56911765,6426.385205,1,2967.83459,0.974359,0.813474,0.0664586,0.0318934,0.027027,0.0569457,0.0467699,0.0101758,0,0,
0.292710526,-0.008,72.23102632,12.04089474,2985.468632,2.366631579,21.8618,0.847157895,16.52272727,6430.634763,1,2985.468632,0.973684,0.847378,0.0862011,0.0443032,0.0555556,0.0857838,0.0713836,0.0144001,0,0,
0.245184211,-0.0062,63.15184211,12.006,3004.825158,2.4265,25.9008,0.869052632,16.48939394,6449.991289,1,3004.825158,0.973684,0.868135,0.0894185,0.043,0.0277778,0.101562,0.085126,0.0164364,0,0,
0.289868421,-0.005,78.33557895,11.99963158,3024.468579,2.304,22.3736,0.869052632,16.46878788,6469.634711,1,3024.468579,0.973684,0.868135,0.0894185,0.043,0.0277778,0.100725,0.0845175,0.0162071,0,0,
0.229210526,-0.0012,83.30921053,11.93357895,3044.704526,2.134157895,21.1086,0.877605263,16.43636364,6489.870658,1,3044.704526,0.973684,0.876919,0.0668906,0.0321667,0.0277778,0.056693,0.0475679,0.00912514,0,0,
0.278368421,-0.0068,83.88744737,11.99942105,3064.999947,1.997263158,20.2944,0.877605263,16.39757576,6510.166079,0.868421053,3064.999947,0.973684,0.876919,0.0668906,0.0321667,0.0277778,0.0565368,0.0474315,0.00910521,0,0,
0.345394737,-0.002,81.25628947,12.01357895,3085.088316,1.894763158,20.059,0.877605263,16.35909091,6530.254447,0.868421053,3085.088316,0.973684,0.876919,0.0668906,0.0321667,0.0277778,0.056294,0.0472278,0.00906616,0,0,
0.291789474,-0.0008,96.72826316,11.995,3105.005053,1.809105263,19.4986,0.848842105,16.33939394,6550.171184,0.868421053,3105.005053,0.973684,0.847378,0.0862011,0.0340474,0.0555556,0.0887189,0.0745089,0.01421,0,0,
0.294461538,-0.0038,100.8371538,12.04384615,3127.468897,1.740102564,18.912,0.814128205,16.31470588,6586.019513,0.871794872,3127.468897,0.974359,0.813474,0.0664586,0.0318934,0.027027,0.0565852,0.0464467,0.0101385,0,0,
0.27574359,-0.0074,73.71174359,11.99015385,3146.828692,1.691974359,18.7172,0.810794872,16.30764706,6605.379308,0.794871795,3146.828692,0.974359,0.810053,0.0667362,0.0237475,0.0540541,0.055786,0.0456504,0.0101356,0,0,
0.212292683,-0.0042,76.40826829,12.08512195,3171.313976,1.654121951,18.3686,0.77095122,20.04527778,6654.674854,0.317073171,3171.313976,0.97561,0.76925,0.0535598,0.0231306,0.0512821,0.0329251,0.0256074,0.00731773,0,0,
0.243,-0.0078,80.92002439,12.01912195,3190.531951,2.337682927,19.3228,0.758268293,19.86055556,6673.892829,0.780487805,3190.531951,0.97561,0.757875,0.0432062,0.0206565,0.025641,0.0252948,0.0197636,0.00553121,0,0,
0.269926829,-0.005,81.55395122,12.03780488,3209.148732,3.876195122,27.965,0.758268293,19.51416667,6692.50961,1,3209.148732,0.97561,0.757875,0.0432062,0.0206565,0.025641,0.025172,0.0197056,0.0054664,0,0,
0.269219512,-0.0046,76.33492683,12.03395122,3229.228951,4.225829268,23.2374,0.766195122,17.03861111,6712.589829,1,3229.228951,0.97561,0.766,0.0214357,0.0102482,0.025641,0.00607446,0.00477484,0.00129962,0,0,
0.2408,-0.0044,74.0937,12.0468,3247.30325,3.973825,21.7688,0.7985,16.854,6718.569125,0.875,3247.30325,0.975,0.799128,0.0459847,0.023433,0.0526316,0.0201072,0.0156412,0.00446597,0,0,
0.285051282,-0.0058,70.22487179,12.08610256,3265.508667,3.659410256,21.2212,0.822461538,16.70882353,6724.059282,0.871794872,3265.508667,0.974359,0.822026,0.0441915,0.0212075,0.027027,0.0249965,0.0208267,0.00416975,0,0,
0.262974359,-0.0042,75.81428205,12.05205128,3285.846179,3.197666667,21.3052,0.823974359,16.58970588,6744.396795,0.871794872,3285.846179,0.974359,0.823579,0.0742019,0.0351937,0.0810811,0.0643372,0.0538228,0.0105144,0,0,
0.266820513,-0.0064,73.89117949,11.96405128,3305.900846,2.832692308,22.2008,0.828897436,16.48470588,6764.451462,0.871794872,3305.900846,0.974359,0.828632,0.0772778,0.0396321,0.162162,0.0714834,0.0589796,0.0125038,0,0,
0.292153846,-0.0066,76.14746154,11.98389744,3326.527718,2.587358974,26.0156,0.815769231,16.40205882,6785.078333,1,3326.527718,0.974359,0.815158,0.0679179,0.0437005,0.0540541,0.0572165,0.0477951,0.00942135,0,0,
0.314736842,-0.004,85.283,11.96668421,3344.178289,2.479631579,28.4058,0.838736842,16.32666667,6789.344421,1,3344.178289,0.973684,0.83873,0.0832695,0.038737,0.138889,0.0761868,0.0647537,0.0114331,0,0,
0.289717949,-0.0026,75.42976923,11.964,3366.613718,2.379717949,29.3774,0.819051282,16.25676471,6825.164333,1,3366.613718,0.974359,0.816842,0.0693045,0.0335841,0.0540541,0.0594466,0.0494223,0.0100243,0,0,
0.255153846,-0.006,83.993,11.88184615,3387.098462,2.313820513,27.286,0.814128205,16.19735294,6845.649077,1,3387.098462,0.974359,0.813474,0.0664586,0.0318934,0.027027,0.0565996,0.0471197,0.0094799,0,0,
0.221871795,-0.0064,108.7629231,11.99241026,3406.825462,2.19925641,27.7244,0.814128205,16.13205882,6865.376077,1,3406.825462,0.974359,0.813474,0.0664586,0.0318934,0.027027,0.0566654,0.0471653,0.00950011,0,0,
0.257974359,-0.007,77.86515385,11.96687179,3427.209308,2.091487179,24.1462,0.815769231,16.05823529,6885.759923,1,3427.209308,0.974359,0.815158,0.0679179,0.0437005,0.0540541,0.0572904,0.0478313,0.00945912,0,0,
0.264947368,-0.0072,77.25676316,11.95368421,3445.414263,2.017342105,22.486,0.862447368,16.00606061,6890.580395,1,3445.414263,0.973684,0.863081,0.0666777,0.0338891,0.0555556,0.0493376,0.0418666,0.00747104,0,0,
0.257666667,-0.0054,79.3265641,11.96348718,3468.516128,2.057717949,23.327,0.847076923,15.98647059,6927.066744,1,3468.516128,0.974359,0.845605,0.0612684,0.023674,0.0540541,0.0429263,0.0350919,0.00783441,0,0,
0.242384615,-0.0092,69.81466667,11.80738462,3489.495385,2.079025641,24.097,0.819128205,15.93794118,6948.046,1,3489.495385,0.974359,0.818605,0.0543734,0.0237475,0.0540541,0.0363414,0.0302796,0.0060618,0,0,
0.249666667,-0.0088,73.25030769,11.69733333,3509.171231,1.996974359,22.6198,0.822461538,15.90705882,6967.721846,1,3509.171231,0.974359,0.822026,0.0441915,0.0212075,0.027027,0.0254297,0.0211257,0.00430398,0,0,
0.284384615,-0.0046,71.09669231,11.78410256,3528.54259,1.938153846,22.0716,0.822461538,15.88852941,6987.093205,1,3528.54259,0.974359,0.822026,0.0441915,0.0212075,0.027027,0.0251422,0.0209357,0.00420652,0,0,
0.263769231,-0.0056,68.78894872,11.81994872,3549.159667,1.895358974,22.1674,0.814128205,15.84147059,7007.710282,1,3549.159667,0.974359,0.813474,0.0664586,0.0318934,0.027027,0.0567311,0.0472891,0.00944198,0,0,
0.318282051,-0.0048,73.99382051,12.01220513,3570.655154,1.877641026,21.8212,0.819128205,15.79088235,7029.205769,0.871794872,3570.655154,0.974359,0.818605,0.0543734,0.0237475,0.0540541,0.0358934,0.0299527,0.00594074,0,0,
0.296589744,0.0018,66.83979487,12.17789744,3591.371308,1.887538462,24.198,0.815769231,15.74705882,7049.921923,1,3591.371308,0.974359,0.815158,0.0679179,0.0351937,0.0810811,0.0580681,0.0493168,0.00875138,0,0,
0.22425641,-0.0056,73.14805128,11.92651282,3612.306026,1.801666667,22.0702,0.814128205,21.15441176,7070.856641,1,3612.306026,0.974359,0.813474,0.0664586,0.0318934,0.027027,0.0565218,0.0480244,0.0084974,0,0,
0.248769231,-0.0062,74.35269231,12.02292308,3632.888308,1.790897436,23.5062,0.814128205,17.76823529,7091.438923,1,3632.888308,0.974359,0.813474,0.0664586,0.0318934,0.027027,0.056435,0.0479068,0.00852823,0,0,
0.262,-0.0036,80.73671795,11.98102564,3652.205051,1.796564103,22.2936,0.814128205,17.48235294,7110.755667,1,3652.205051,0.974359,0.813474,0.0664586,0.0318934,0.027027,0.0571278,0.0484038,0.00872397,0,0,
0.269076923,-0.0022,81.50592308,11.74835897,3670.881718,1.982230769,25.7004,0.814128205,17.32852941,7129.432333,1,3670.881718,0.974359,0.813474,0.0664586,0.0318934,0.027027,0.0577295,0.0488929,0.00883655,0,0,
0.271615385,-0.003,71.71166667,11.85123077,3690.507923,1.889205128,23.5516,0.814128205,17.19235294,7149.058538,1,3690.507923,0.974359,0.813474,0.0664586,0.0318934,0.027027,0.0563261,0.0478082,0.00851794,0,0,
0.31825641,-0.0068,73.14782051,11.8725641,3710.230051,1.839871795,22.1146,0.822461538,17.09529412,7168.780667,1,3710.230051,0.974359,0.822026,0.0441915,0.0212075,0.027027,0.0252037,0.0213785,0.00382525,0,0,
0.185512821,-0.0092,75.35282051,11.80738462,3730.049641,1.898641026,24.726,0.822461538,17.02441176,7188.600256,1,3730.049641,0.974359,0.822026,0.0441915,0.0212075,0.027027,0.0254282,0.0215511,0.00387714,0,0,
0.213051282,-0.0054,72.99387179,11.79405128,3749.525282,2.654384615,22.1974,0.822461538,16.94676471,7208.075897,1,3749.525282,0.974359,0.822026,0.0441915,0.0212075,0.027027,0.02538,0.0215196,0.00386038,0,0,
0.264897436,-0.0072,70.09671795,11.84261538,3770.018205,2.911769231,22.9278,0.814128205,16.87941176,7228.568821,1,3770.018205,0.974359,0.813474,0.0664586,0.0318934,0.027027,0.0568779,0.0483312,0.00854662,0,0,
0.244410256,-0.0016,75.17320513,11.86030769,3790.643487,3.614794872,21.1948,0.814128205,16.82147059,7249.194103,0.871794872,3790.643487,0.974359,0.813474,0.0664586,0.0318934,0.027027,0.0570775,0.0483994,0.00867805,0,0,
0.276897436,-0.0064,82.506,12.12076923,3809.894128,4.432512821,20.3996,0.814128205,16.73735294,7268.444744,0.871794872,3809.894128,0.974359,0.813474,0.0664586,0.0318934,0.027027,0.057707,0.0489019,0.00880518,0,0,
0.244974359,-0.0066,76.32697436,12.09610256,3830.239897,4.155230769,19.6946,0.814128205,16.67764706,7288.790513,0.871794872,3830.239897,0.974359,0.813474,0.0664586,0.0318934,0.027027,0.0568022,0.0482438,0.00855843,0,0,
0.232769231,-0.0088,90.63487179,11.80615385,3850.838718,3.830230769,19.2086,0.814128205,16.60735294,7309.389333,0.871794872,3850.838718,0.974359,0.813474,0.0664586,0.0318934,0.027027,0.0565171,0.0479658,0.00855132,0,0,
0.205384615,-0.0066,72.86541026,11.81430769,3870.150513,3.822282051,21.8592,0.814128205,16.53529412,7328.701128,0.871794872,3870.150513,0.974359,0.813474,0.0664586,0.0318934,0.027027,0.0577944,0.0489444,0.00884995,0,0,
0.245825,-0.0048,68.81885,11.745,3892.3258,3.636275,20.252,0.79525,16.49228571,7363.591675,0.875,3892.3258,0.975,0.794128,0.0649604,0.0315253,0.157895,0.0487591,0.0402811,0.00847803,0,0,
0.235219512,-0.0042,92.187,11.8222439,3915.505854,3.436170732,21.5536,0.761439024,16.44833333,7398.866732,0.87804878,3915.505854,0.97561,0.761125,0.0466917,0.0293262,0.128205,0.0264529,0.0214333,0.00501953,0,0,
0.178775,-0.0048,102.716075,11.7409,3933.241975,3.7944,22.0576,0.77575,16.40657143,7404.50785,0.875,3933.241975,0.975,0.775795,0.0583894,0.0297096,0.131579,0.0336916,0.0278101,0.0058815,0,0,
0.246512195,-0.0056,76.53002439,11.9142439,3955.529512,4.818902439,24.5726,0.759853659,16.10694444,7438.89039,0.975609756,3955.529512,0.97561,0.757875,0.0432062,0.0206565,0.025641,0.0251583,0.0203845,0.00477382,0,0,
0.268731707,-0.009,76.01809756,12.18282927,3976.473585,5.335195122,24.3062,0.758268293,15.95722222,7459.834463,0.87804878,3976.473585,0.97561,0.757875,0.0432062,0.0206565,0.025641,0.0245801,0.0199864,0.00459369,0,0,
0.294097561,-0.0008,77.62739024,12.10209756,3996.79778,5.697195122,27.3002,0.758268293,15.84777778,7480.158659,0.87804878,3996.79778,0.97561,0.757875,0.0432062,0.0206565,0.025641,0.0248447,0.0202592,0.00458551,0,0,
0.238926829,0.0036,78.43253659,12.09482927,4016.564829,5.283439024,26.8474,0.758268293,15.76083333,7499.925707,0.902439024,4016.564829,0.97561,0.757875,0.0432062,0.0206565,0.025641,0.0250279,0.0204316,0.00459633,0,0,
0.28435,-0.0084,75.59375,12.17185,4034.36935,4.7849,24.6314,0.77575,19.45914286,7505.635225,0.875,4034.36935,0.975,0.775795,0.0583894,0.0331904,0.0526316,0.0372807,0.030479,0.00680174,0,0,
0.258846154,-0.0042,74.32728205,12.032,4052.292872,4.337102564,27.8154,0.814128205,17.65735294,7510.843487,1,4052.292872,0.974359,0.813474,0.0664586,0.0318934,0.027027,0.0558277,0.0477323,0.00809538,0,0,
0.278205128,-0.0028,77.22430769,11.98020513,4071.775051,3.783358974,25.2122,0.814128205,17.34441176,7530.325667,1,4071.775051,0.974359,0.813474,0.0664586,0.0318934,0.027027,0.0574466,0.0489801,0.00846655,0,0,
0.229230769,-0.0024,68.404,12.00092308,4091.053718,3.446102564,25.544,0.814128205,17.13147059,7549.604333,1,4091.053718,0.974359,0.813474,0.0664586,0.0318934,0.027027,0.0568505,0.0485295,0.00832105,0,0,
0.246769231,-0.0058,75.07058974,12.00887179,4110.853667,3.136974359,26.164,0.814128205,16.94205882,7569.404282,1,4110.853667,0.974359,0.813474,0.0664586,0.0318934,0.027027,0.0568906,0.0485953,0.00829524,0,0,
0.212512821,-0.0024,74.14761538,11.99769231,4130.714692,2.822333333,23.9114,0.820692308,16.78323529,7589.265308,1,4130.714692,0.974359,0.820211,0.0718761,0.0437005,0.0540541,0.0618699,0.0527434,0.0091265,0,0,
0.212815789,-0.003,76.12528947,12.00026316,4147.202079,2.640105263,24.6126,0.8675,16.64121212,7592.368211,1,4147.202079,0.973684,0.86827,0.0671022,0.0338891,0.0555556,0.0517965,0.0448355,0.00696106,0,0,
0.295657895,-0.0048,72.78342105,11.85584211,4167.409105,2.452973684,22.6614,0.877605263,16.48969697,7612.575237,1,4167.409105,0.973684,0.876919,0.0668906,0.0321667,0.0277778,0.0565981,0.0493956,0.00720252,0,0,
0.231921053,-0.002,74.15171053,11.83594737,4187.502526,2.311157895,21.7558,0.877605263,16.38212121,7632.668658,0.921052632,4187.502526,0.973684,0.876919,0.0668906,0.0321667,0.0277778,0.056807,0.0495597,0.0072473,0,0,
0.192,-0.0042,77.38823684,11.94763158,4207.563658,2.1955,20.911,0.877605263,16.29666667,7652.729789,0.868421053,4207.563658,0.973684,0.876919,0.0668906,0.0321667,0.0277778,0.0565845,0.0493708,0.00721372,0,0,
0.300552632,-0.0062,72.36234211,11.84473684,4227.230842,2.101078947,20.113,0.877605263,16.22,7672.396974,0.868421053,4227.230842,0.973684,0.876919,0.0668906,0.0321667,0.0277778,0.0581021,0.0506496,0.0074525,0,0,
0.230026316,-0.001,71.46776316,11.79715789,4247.556868,2.020973684,19.4318,0.877605263,16.15181818,7692.723,0.868421053,4247.556868,0.973684,0.876919,0.0668906,0.0321667,0.0277778,0.0566053,0.0494543,0.00715099,0,0,
0.285342105,-0.0048,67.36294737,11.84010526,4268.512684,1.945315789,18.8778,0.877605263,16.08272727,7713.678816,0.868421053,4268.512684,0.973684,0.876919,0.0668906,0.0321667,0.0277778,0.0568576,0.0496636,0.00719396,0,0,
0.272315789,-0.0006,70.36247368,11.81742105,4289.388711,1.883526316,18.393,0.877605263,16.01151515,7734.554842,0.868421053,4289.388711,0.973684,0.876919,0.0668906,0.0321667,0.0277778,0.0567123,0.0495297,0.00718256,0,0,
0.2945,-0.0032,71.7045,11.79957895,4311.032289,1.834315789,18.6992,0.877605263,15.94181818,7756.198421,0.868421053,4311.032289,0.973684,0.876919,0.0668906,0.0321667,0.0277778,0.055612,0.0485984,0.00701357,0,0,
0.328736842,-0.0062,72.94115789,11.82205263,4331.667237,1.785631579,17.9948,0.877605263,15.88515152,7776.833368,0.868421053,4331.667237,0.973684,0.876919,0.0668906,0.0321667,0.0277778,0.0570447,0.0497658,0.00727888,0,0,
0.250105263,-0.0022,69.70465789,11.85078947,4352.193605,1.744184211,18.283,0.877605263,15.83787879,7797.359737,0.868421053,4352.193605,0.973684,0.876919,0.0668906,0.0321667,0.0277778,0.0564356,0.0501775,0.00625808,0,0,
0.326342105,-0.0016,71.86252632,11.78647368,4373.040789,1.704184211,17.6942,0.877605263,15.79121212,7818.206921,0.868421053,4373.040789,0.973684,0.876919,0.0668906,0.0321667,0.0277778,0.0568385,0.050524,0.00631442,0,0,
0.261052632,-0.0046,70.70463158,11.74826316,4394.127263,1.667447368,17.4038,0.877605263,15.74515152,7839.293395,0.868421053,4394.127263,0.973684,0.876919,0.0668906,0.0321667,0.0277778,0.0567455,0.0504367,0.00630878,0,0,
0.250769231,-0.0036,74.2244359,11.78312821,4418.213359,1.632769231,16.896,0.848717949,15.70352941,7876.763974,0.641025641,4418.213359,0.974359,0.847289,0.0619577,0.023674,0.0540541,0.044177,0.0379594,0.0062176,0,0,
0.239897436,-0.0016,73.01948718,11.81158974,4438.661692,1.603051282,16.4054,0.822461538,15.65088235,7897.212308,0.025641026,4438.661692,0.974359,0.822026,0.0441915,0.0212075,0.027027,0.0253082,0.0220248,0.00328347,0,0,
0.242923077,-0.0038,74.25017949,11.78707692,4459.817949,1.575897436,15.9582,0.837230769,15.58029412,7918.368564,0,4459.817949,0.974359,0.837184,0.0569361,0.033428,0.0540541,0.034258,0.0298591,0.00439892,0,0,
0.217947368,-0.0072,78.57218421,11.81352632,4476.808158,1.557868421,17.566,0.875921053,15.50939394,7921.974289,0,4476.808158,0.973684,0.876919,0.0668906,0.0321667,0.0277778,0.0571304,0.0507382,0.00639216,0,0,
0.292842105,-0.0062,78.51965789,11.82794737,4496.765737,1.533684211,17.1968,0.874184211,15.42939394,7941.931868,0,4496.765737,0.973684,0.873405,0.0768239,0.0339419,0.0555556,0.0736713,0.065469,0.00820232,0,0,
0.341815789,-0.0024,62.62592105,11.72636842,4517.083132,1.511868421,16.768,0.869052632,15.32909091,7962.249263,0,4517.083132,0.973684,0.868135,0.0894185,0.043,0.0277778,0.101371,0.0900646,0.0113069,0,0,
0.325552632,-0.0036,79.94060526,11.71657895,4537.110342,1.492105263,16.2818,0.869052632,15.21393939,7982.276474,0,4537.110342,0.973684,0.868135,0.0894185,0.043,0.0277778,0.101455,0.0901494,0.0113057,0,0,
0.280763158,-0.0036,78.62492105,11.66194737,4557.404053,1.472078947,15.8576,0.869052632,15.07606061,8002.570184,0,4557.404053,0.973684,0.868135,0.0894185,0.043,0.0277778,0.101286,0.0899984,0.0112876,0,0,
0.317605263,-0.0044,76.73042105,11.73263158,4578.035605,1.4525,15.4084,0.877605263,14.93030303,8023.201737,0,4578.035605,0.973684,0.876919,0.0668906,0.0321667,0.0277778,0.0568247,0.0505032,0.00632155,0,0,
0.282894737,-0.0028,68.52055263,11.72405263,4598.638368,1.434842105,14.9754,0.877605263,14.78090909,8043.8045,0,4598.638368,0.973684,0.876919,0.0668906,0.0321667,0.0277778,0.0566636,0.0503416,0.00632202,0,0,
0.282131579,-0.0008,73.73073684,11.947,4618.076421,1.419631579,15.0458,0.877605263,14.63606061,8063.242553,0,4618.076421,0.973684,0.876919,0.0668906,0.0321667,0.0277778,0.0574333,0.0509604,0.00647283,0,0,
0.260578947,-0.0028,71.17828947,12.09189474,4637.371842,1.405289474,14.755,0.875921053,14.49121212,8082.537974,0,4637.371842,0.973684,0.875189,0.0670248,0.0240006,0.0555556,0.0561499,0.0499135,0.00623642,0,0,
0.257289474,-0.0038,69.09957895,11.88084211,4657.840447,1.390789474,14.9476,0.874236842,14.33969697,8103.006579,0,4657.840447,0.973684,0.873459,0.0671129,0.0355282,0.0833333,0.0541603,0.0480989,0.0060614,0,0,
0.270368421,-0.0014,69.36268421,11.82936842,4678.166395,1.376263158,14.5304,0.877605263,14.19666667,8123.332526,0,4678.166395,0.973684,0.876919,0.0668906,0.0321667,0.0277778,0.0568535,0.0504968,0.00635665,0,0,
0.328105263,-0.0048,68.81010526,11.81,4698.624763,1.364,17.3886,0.875921053,14.05181818,8143.790895,0,4698.624763,0.973684,0.875189,0.0670248,0.0240006,0.0555556,0.0560232,0.0498447,0.0061785,0,0,
0.293897436,0,69.53264103,11.81958974,4723.689,1.348692308,16.4106,0.838871795,13.91882353,8182.239615,0,4723.689,0.974359,0.837184,0.0569361,0.0279618,0.108108,0.0358444,0.0309272,0.00491719,0,0,
0.316435897,0.001,72.12223077,11.66010256,4744.681487,1.335205128,16.0058,0.822461538,13.81529412,8203.232103,0,4744.681487,0.974359,0.822026,0.0441915,0.0212075,0.027027,0.0254107,0.0220828,0.0033279,0,0,
0.295897436,-0.0036,73.12210256,11.78635897,4764.696436,1.323051282,15.4464,0.830666667,13.72529412,8223.247051,0,4764.696436,0.974359,0.830447,0.022267,0.0106859,0.027027,0.00639571,0.00555993,0.000835788,0,0,
0.30525641,-0.0084,74.89105128,11.78487179,4784.559128,1.311923077,14.9338,0.827384615,13.63411765,8243.109744,0,4784.559128,0.974359,0.827079,0.0331078,0.0149964,0.0540541,0.0126668,0.0109992,0.00166753,0,0,
0.278282051,-0.0014,75.04492308,11.76358974,4803.942154,1.301153846,14.4566,0.822461538,13.55529412,8262.492769,0,4803.942154,0.974359,0.822026,0.0441915,0.0212075,0.027027,0.0256342,0.0222586,0.00337561,0,0,
0.277410256,-0.0004,69.09687179,11.78235897,4824.448359,1.289794872,14.5304,0.824102564,13.48735294,8282.998974,0,4824.448359,0.974359,0.823711,0.0460369,0.033428,0.0540541,0.0256552,0.0226826,0.00297263,0,0,
0.278526316,-0.0024,68.94171053,11.83257895,4841.582421,1.285026316,16.6454,0.852210526,13.44212121,8286.748553,0,4841.582421,0.973684,0.852568,0.0874924,0.046801,0.111111,0.0897985,0.0807756,0.00902292,0,0,
0.343512821,,69.94184615,11.88507692,4357.538462,1.266692308,,0.853641026,11.6974359,8324.699462,0.128205128,4357.538462,0.974359,0.852342,0.0427464,0.0149964,0.0540541,0.0175515,0.0150513,0.00250013,0,0,
0.3051,,73.7427,11.9466,4394.97255,1.241875,,0.80975,12.57325,8362.13355,0.125,4394.97255,0.975,0.809,0.0328273,0.0105444,0.0263158,0.00731173,0.00609892,0.00121281,0,0,
0.367581395,-0.0104,80.27238889,-1.241837209,1529.352558,1.26355814,3.179266667,0.729906977,26.34769231,7962.934953,0,1529.352558,0.976744,0.728857,0.0421985,0.0225599,0.0731707,0.0143502,0.0143502,0,0,0,
0.382738095,-0.0052,137,-6.893761905,28.35097619,1.231261905,2.814595238,0.741166667,,7959.422548,0,28.35097619,0.97619,0.741146,0.031814,0.0255514,0.075,0.0105939,0.0105939,0,0,0,
0.391119048,-0.0014,113,-5.798047619,49.21430952,1.197666667,2.878214286,0.742642857,,7980.285881,0,49.21430952,0.97619,0.741878,0.0394982,0.0227689,0.025,0.0193214,0.0193214,0,0,0,
0.384642857,-0.0046,88,-5.876095238,69.87780952,1.193904762,2.896190476,0.746452381,,8000.949381,0,69.87780952,0.97619,0.746561,0.0411388,0.0169241,0.025,0.0210083,0.0210083,0,0,0,
0.432142857,-0.0074,89.6,-6.543571429,90.86242857,1.166857143,2.854047619,0.738071429,,8021.934,0,90.86242857,0.97619,0.737976,0.0376235,0.0169241,0.025,0.0179129,0.0179129,0,0,0,
0.482341463,-0.0068,85,-5.758609756,111.0699512,1.199878049,3.049682927,0.754365854,,8016.000878,0,111.0699512,0.97561,0.753875,0.043004,0.0218908,0.025641,0.0240968,0.0240968,0,0,0,
0.442170732,-0.0046,102.2,-6.186,130.2415122,1.295609756,3.461463415,0.758268293,,8035.172439,0,130.2415122,0.97561,0.757875,0.0432062,0.0206565,0.025641,0.0259315,0.0259315,0,0,0,
0.408707317,-0.0014,124.6,-6.928146341,150.0794634,1.226902439,3.34795122,0.758268293,,8055.01039,0,150.0794634,0.97561,0.757875,0.0432062,0.0206565,0.025641,0.0259617,0.0259617,0,0,0,
0.3568,0.0006,82.6,-6.986225,169.1766,1.273325,3.746475,0.774675,,8046.65985,0,169.1766,0.975,0.774692,0.0524882,0.027622,0.0263158,0.0350977,0.0350977,0,0,0,
0.423875,-0.004,79.6,-6.36635,188.8412,1.243375,3.665975,0.7932,,8066.32445,0,188.8412,0.975,0.793692,0.0325141,0.0155733,0.0263158,0.0144347,0.0144347,0,0,0,
0.363975,-0.0058,86.2,-6.31135,209.87425,1.2332,3.629075,0.794,,8087.3575,0,209.87425,0.975,0.793692,0.0325141,0.0155733,0.0263158,0.0143867,0.0143867,0,0,0,
0.41402439,-0.0018,90,-6.492926829,230.8245366,1.21302439,3.457317073,0.784926829,,8135.755463,0,230.8245366,0.97561,0.7844,0.0319076,0.0114578,0.025641,0.0126205,0.0126205,0,0,0,
0.286634146,-0.0052,90.2,-7.322463415,250.2525854,1.191658537,3.361365854,0.766195122,,8155.183512,0,250.2525854,0.97561,0.766,0.0214357,0.0102482,0.025641,0.00619843,0.00619843,0,0,0,
0.312071429,-0.0044,75.2,-6.878190476,266.3925714,1.169761905,3.334428571,0.758761905,,8197.464143,0,266.3925714,0.97619,0.75839,0.022765,0.00715542,0,0.00588679,0.00588679,0,0,0,
0.468714286,-0.0028,88.4,-7.123214286,285.9231667,1.148857143,3.190761905,0.738190476,,8216.994738,0,285.9231667,0.97619,0.738098,0.0106014,0.00505964,0,0.00160303,0.00160303,0,0,0,
0.434142857,-0.0058,90.8,-7.366285714,305.6683095,1.1465,3.254666667,0.751142857,,8236.739881,0,305.6683095,0.97619,0.751366,0.0217552,0.0113137,0.025,0.00454835,0.00454835,0,0,0,
0.421536585,-0.0094,72.2,-7.100731707,326.2903171,1.170560976,3.321292683,0.766195122,,8231.221244,0,326.2903171,0.97561,0.766,0.0214357,0.0102482,0.025641,0.00638639,0.00638639,0,0,0,
0.425317073,-0.0088,84.6,-4.69097561,347.4861951,1.163658537,3.132804878,0.769317073,,8252.417122,0,347.4861951,0.97561,0.7692,0.0246277,0.0125514,0.025641,0.00715005,0.00715005,0,0,0,
0.409829268,-0.0084,83,-4.711902439,367.6223659,1.164073171,3.088,0.769317073,,8272.553293,0,367.6223659,0.97561,0.7692,0.0246277,0.0125514,0.025641,0.00734175,0.00734175,0,0,0,
0.43697561,-0.0028,84.6,-7.386414634,387.7459268,1.174463415,3.036634146,0.766195122,,8292.676854,0,387.7459268,0.97561,0.766,0.0214357,0.0102482,0.025641,0.00638198,0.00638198,0,0,0,
0.468097561,-0.0056,83,-6.67197561,408.3131463,1.176292683,2.957585366,0.766195122,,8313.244073,0,408.3131463,0.97561,0.766,0.0214357,0.0102482,0.025641,0.00637091,0.00637091,0,0,0,
0.468225,-0.0046,88.6,-7.313225,428.963825,1.181,2.993125,0.7836,,8306.447075,0,428.963825,0.975,0.783846,0.0321293,0.0164157,0.0263158,0.0120202,0.0120202,0,0,0,
0.429925,-0.003,79.2,-7.4985,449.310475,1.177275,2.903875,0.794,,8326.793725,0,449.310475,0.975,0.793692,0.0325141,0.0155733,0.0263158,0.0146568,0.0146568,0,0,0,
0.47805,-0.0074,92.8,-7.55735,470.772575,1.15085,2.7297,0.794,,8348.255825,0,470.772575,0.975,0.793692,0.0325141,0.0155733,0.0263158,0.0143498,0.0143498,0,0,0,
0.4342,-0.004,79.2,-7.4911,492.128225,1.126975,2.591175,0.794,,8369.611475,0,492.128225,0.975,0.793692,0.0325141,0.0155733,0.0263158,0.0144064,0.0144064,0,0,0,
0.400275,-0.0028,86,-7.4553,512.208025,1.105475,2.509975,0.794825,,8389.691275,0,512.208025,0.975,0.794538,0.0332636,0.0173159,0.0263158,0.0148739,0.0148739,0,0,0,
0.45755,-0.0024,80.4,-7.35415,532.675825,1.087275,2.4655,0.794,,8410.159075,0,532.675825,0.975,0.793692,0.0325141,0.0155733,0.0263158,0.0144267,0.0144267,0,0,0,
0.462375,-0.0034,91.4,-7.361775,552.896775,1.0713,2.414325,0.7916,,8430.380025,0,552.896775,0.975,0.791231,0.0327048,0.0116076,0.0263158,0.0138879,0.0138879,0,0,0,
0.4216,-0.0028,80.2,-7.346225,573.05405,1.057925,2.39115,0.7884,,8450.5373,0,573.05405,0.975,0.787949,0.0326625,0.0172169,0.0263158,0.0125413,0.0125413,0,0,0,
0.382575,-0.0032,86.6,-7.355275,592.9936,1.0471,2.364975,0.804725,,8470.47685,0,592.9936,0.975,0.804692,0.0397923,0.0228887,0.0263158,0.0191888,0.0191888,0,0,0,
0.415641026,-0.0016,85.4,-7.409948718,612.4350769,1.038307692,2.331307692,0.822461538,,8461.063077,0,612.4350769,0.974359,0.822026,0.0441915,0.0212075,0.027027,0.0262966,0.0262966,0,0,0,
0.462076923,-0.002,86.2,-7.576128205,633.1067179,1.029846154,2.293076923,0.822461538,,8481.734718,0,633.1067179,0.974359,0.822026,0.0441915,0.0212075,0.027027,0.025992,0.025992,0,0,0,
0.501846154,-0.0114,84.4,-7.625589744,653.7807692,1.022461538,2.275435897,0.819076923,,8502.408769,0,653.7807692,0.974359,0.818553,0.0440127,0.0166887,0.027027,0.0252269,0.0252269,0,0,0,
0.487575,-0.0036,80.8,-7.74225,673.884675,1.01525,2.262075,0.79895,,8551.367925,0,673.884675,0.975,0.797923,0.0359022,0.0164677,0.0263158,0.016531,0.016531,0,0,0,
0.442475,-0.0074,81.4,-7.70975,693.9685,1.00985,2.261975,0.794,,8571.45175,0,693.9685,0.975,0.793692,0.0325141,0.0155733,0.0263158,0.0144875,0.0144875,0,0,0,
0.459925,-0.0012,76.4,-7.773625,714.151675,1.004325,2.252975,0.7924,,8591.634925,0,714.151675,0.975,0.792051,0.0326625,0.0187167,0.0263158,0.0140837,0.0140837,0,0,0,
0.4489,-0.0006,91.2,-7.7981,734.920175,0.998875,2.22395,0.784275,,8612.403425,0,734.920175,0.975,0.784538,0.0544508,0.0271298,0.0263158,0.0400436,0.0400436,0,0,0,
0.468575,0.0002,98.2,-7.873825,754.55245,1.15565,3.24835,0.785875,,8632.0357,0,754.55245,0.975,0.785359,0.0545288,0.0261176,0.0263158,0.0407514,0.0407514,0,0,0,
0.48835,-0.0092,78.8,-7.897675,773.8661,1.275575,4.79875,0.777875,,8651.34935,0.125,773.8661,0.975,0.777154,0.0762049,0.0364998,0.0263158,0.0796474,0.0796474,0,0,0,
0.442725,-0.0038,66.2,-7.801675,793.450825,1.2736,4.194925,0.777875,,8670.934075,0.125,793.450825,0.975,0.777154,0.0762049,0.0364998,0.0263158,0.0794338,0.0794338,0,0,0,
0.611275,-0.0104,372,-7.876275,813.197575,1.4682,5.0127,0.779525,,8690.680825,0.125,813.197575,0.975,0.778846,0.0772125,0.0372767,0.0263158,0.0800051,0.0800051,0,0,0,
0.439325,-0.0108,96.6,-7.83145,832.675725,1.56975,4.62825,0.777875,,8710.158975,0.125,832.675725,0.975,0.777154,0.0762049,0.0364998,0.0263158,0.079111,0.079111,0,0,0,
0.422425,-0.0016,108.6,-7.78575,852.367775,1.498525,4.797775,0.777875,,8729.851025,0.125,852.367775,0.975,0.777154,0.0762049,0.0364998,0.0263158,0.0789143,0.0789143,0,0,0,
0.453725,-0.0064,104,-7.7667,872.143625,1.361525,4.2271,0.785875,,8749.626875,0.125,872.143625,0.975,0.785359,0.0545288,0.0261176,0.0263158,0.0406694,0.0406694,0,0,0,
0.42195,-0.005,92.4,-7.8359,891.94605,1.3635,4.091075,0.785875,,8769.4293,0.125,891.94605,0.975,0.785359,0.0545288,0.0261176,0.0263158,0.0405099,0.0405099,0,0,0,
0.440425,-0.0076,115.6,-7.962375,911.8807,1.4154,4.37385,0.785875,,8789.36395,0.125,911.8807,0.975,0.785359,0.0545288,0.0261176,0.0263158,0.040698,0.040698,0,0,0,
0.466625,-0.0044,119,-7.87795,931.854,1.424875,4.462875,0.785875,,8809.33725,0.125,931.854,0.975,0.785359,0.0545288,0.0261176,0.0263158,0.0406334,0.0406334,0,0,0,
0.455414634,-0.0062,104.6,-7.959829268,952.922122,1.322780488,4.172560976,0.780121951,,8857.853049,0.12195122,952.922122,0.97561,0.779475,0.0530249,0.0212826,0.025641,0.0378067,0.0378067,0,0,0,
0.430560976,-0.006,103.6,-7.889707317,973.7553659,1.201902439,3.869097561,0.759829268,,8878.686293,0.12195122,973.7553659,0.97561,0.758675,0.0438046,0.0212826,0.025641,0.0264152,0.0264152,0,0,0,
0.41005,-0.0064,274.4,-7.633225,993.521825,1.2153,3.953075,0.781175,,8871.005075,0.125,993.521825,0.975,0.781359,0.0371402,0.0286402,0.0526316,0.0154511,0.0154511,0,0,0,
0.5023,-0.0052,88.2,-7.588375,1013.2589,1.190875,3.8425,0.8039,,8890.74215,0.025,1013.2589,0.975,0.803846,0.0393925,0.0216004,0.0263158,0.0188805,0.0188805,0,0,0,
0.488461538,-0.001,91.8,-7.704358974,1033.320897,1.301897436,4.386410256,0.826564103,,8881.948897,0.102564103,1033.320897,0.974359,0.826237,0.0471154,0.026986,0.027027,0.0279971,0.0279971,0,0,0,
0.460421053,-0.0038,108.8,-7.624157895,1052.947316,1.397473684,4.706236842,0.845605263,,8871.201368,0.131578947,1052.947316,0.973684,0.845784,0.0553208,0.0273582,0.0277778,0.0389188,0.0389188,0,0,0,
0.441394737,-0.0028,82.8,-7.605,1072.786053,1.417526316,4.617684211,0.864973684,,8891.040105,0.131578947,1072.786053,0.973684,0.864811,0.0638182,0.0326058,0.0277778,0.050859,0.050859,0,0,0,
0.480131579,-0.0026,95.8,-7.588526316,1092.642526,1.357578947,4.290684211,0.869052632,,8910.896579,0.131578947,1092.642526,0.973684,0.868135,0.0894185,0.043,0.0277778,0.105264,0.105264,0,0,0,
0.403447368,-0.0066,84,-7.645447368,1112.813184,1.339,4.176631579,0.869052632,,8931.067237,0.131578947,1112.813184,0.973684,0.868135,0.0894185,0.043,0.0277778,0.104992,0.104992,0,0,0,
0.437605263,-0.0038,87.6,-7.538763158,1133.025579,1.333526316,4.133263158,0.869052632,,8951.279632,0.131578947,1133.025579,0.973684,0.868135,0.0894185,0.043,0.0277778,0.104593,0.104593,0,0,0,
0.492351351,-0.0086,87.6,-7.525189189,1151.52227,1.256864865,3.935891892,0.873324324,,8937.760541,0.135135135,1151.52227,0.972973,0.8725,0.093423,0.0493165,0.0285714,0.110767,0.110767,0,0,0,
0.412675676,-0.0078,96.4,-7.454486486,1170.642568,1.224945946,3.942,0.892351351,,8956.880838,0.135135135,1170.642568,0.972973,0.892056,0.10102,0.0493165,0.0285714,0.129578,0.129578,0,0,0,
0.459405405,-0.0104,92,-7.492378378,1190.750622,1.208216216,3.844351351,0.896702703,,8976.988892,0.135135135,1190.750622,0.972973,0.895639,0.102234,0.0548812,0.0285714,0.133595,0.133595,0,0,0,
0.471666667,-0.0042,168.2,-7.402222222,1210.065528,1.24375,4.124805556,0.913055556,,8962.509361,0.138888889,1210.065528,0.972222,0.912429,0.111731,0.0562547,0.0294118,0.153778,0.153778,0,0,0,
0.498388889,-0.001,79.8,-7.400277778,1229.831583,1.214833333,4.025277778,0.923138889,,8982.275417,0.138888889,1229.831583,0.972222,0.921857,0.114677,0.055394,0.0294118,0.166144,0.166144,0,0,0,
0.491513514,-3.47E-19,98.8,-7.435297297,1251.904973,1.278864865,4.173945946,0.905621622,,9038.143243,0.135135135,1251.904973,0.972973,0.903889,0.106442,0.0493353,0.0285714,0.14361,0.14361,0,0,0,
0.453648649,-0.0086,88.2,-7.373432432,1272.471649,1.300540541,4.365918919,0.891486486,,9058.709919,0.135135135,1272.471649,0.972973,0.890278,0.100515,0.0439441,0.0285714,0.128476,0.128476,0,0,0,
0.425736842,-0.0044,165,-7.220763158,1293.764026,1.336421053,4.390105263,0.864,,9112.018079,0.131578947,1293.764026,0.973684,0.862081,0.0891673,0.0384144,0.0277778,0.1016,0.1016,0,0,0,
0.412439024,-0.0008,105.8,-6.740390244,1316.830878,1.289365854,4.02295122,0.796097561,,9221.761805,0.12195122,1316.830878,0.97561,0.794225,0.069644,0.0225195,0.025641,0.0574322,0.0574322,0,0,0,
0.238756098,-0.0058,91.4,-7.458463415,1333.816659,1.202634146,3.820073171,0.766195122,,9238.747585,0.12195122,1333.816659,0.97561,0.766,0.0214357,0.0102482,0.025641,0.00643208,0.00643208,0,0,0,
0.218452381,-0.007,86.4,-7.772333333,1346.87631,1.255642857,4.076595238,0.748095238,,9277.947881,0.119047619,1346.87631,0.97619,0.747463,0.0246861,0.00715542,0,0.00538583,0.00538583,0,0,0,
0.286454545,-0.0068,80.8,-8.935545455,1362.950159,1.269545455,4.280409091,0.712886364,,9342.738386,0.113636364,1362.950159,0.977273,0.712209,0.014748,0.015019,0.047619,0.000687711,0.000687711,0,0,0,
0.421590909,-0.0094,83,-9.044068182,1381.357818,1.6095,5.391636364,0.71,,9361.146045,0.636363636,1381.357818,0.977273,0.71,,0,0,,,0,0,0,
0.346697674,-0.0054,88.2,-8.675023256,1399.913698,1.599186047,5.585488372,0.715837209,,9355.91007,0.418604651,1399.913698,0.976744,0.715976,0.0304667,0.0159519,0.0243902,0.0110098,0.0110098,0,0,0,
0.307642857,-0.0072,92.8,-8.747238095,1417.417024,1.868261905,6.179404762,0.732738095,,9348.488595,0.857142857,1417.417024,0.97619,0.732512,0.0340684,0.0221997,0.025,0.0153142,0.0153142,0,0,0,
0.374878049,-0.005,106.4,-9.707536585,1436.40361,2.013878049,6.517731707,0.752804878,,9341.334537,1,1436.40361,0.97561,0.753075,0.0429176,0.0224825,0.025641,0.0240288,0.0240288,0,0,0,
0.442585366,-0.0044,93.4,-9.217317073,1455.848171,1.974365854,6.432268293,0.758268293,,9360.779098,1,1455.848171,0.97561,0.757875,0.0432062,0.0206565,0.025641,0.0261004,0.0261004,0,0,0,
0.482707317,-0.0064,88,-10.69468293,1475.819073,1.849829268,5.952609756,0.758268293,,9380.75,1,1475.819073,0.97561,0.757875,0.0432062,0.0206565,0.025641,0.0259504,0.0259504,0,0,0,
0.434121951,-0.0034,111.6,-10.8592439,1495.826122,1.723414634,5.482073171,0.758268293,,9400.757049,1,1495.826122,0.97561,0.757875,0.0432062,0.0206565,0.025641,0.0259499,0.0259499,0,0,0,
0.405243902,-0.0038,92.6,-10.39660976,1515.32022,1.87495122,6.153512195,0.758268293,,9420.251146,1,1515.32022,0.97561,0.757875,0.0432062,0.0206565,0.025641,0.026044,0.026044,0,0,0,
0.411,-0.0054,86.2,-11.1697561,1535.280098,1.911195122,6.06004878,0.758268293,,9440.211024,1,1535.280098,0.97561,0.757875,0.0432062,0.0206565,0.025641,0.0259877,0.0259877,0,0,0,
0.447878049,-0.0076,58.4,-10.80795122,1555.900073,1.792292683,5.508731707,0.76295122,,9460.831,1,1555.900073,0.97561,0.762675,0.0464699,0.0272656,0.025641,0.0281835,0.0281835,0,0,0,
0.422585366,0.002,93.4,-10.9445122,1576.803317,1.694317073,5.130926829,0.762170732,,9481.734244,1,1576.803317,0.97561,0.761875,0.0459778,0.0272656,0.025641,0.0280174,0.0280174,0,0,0,
0.483682927,-0.0042,147.4,-11.1174878,1597.489317,1.666268293,5.076146341,0.762170732,,9502.420244,0.731707317,1597.489317,0.97561,0.761875,0.0459778,0.0241709,0.025641,0.0277771,0.0277771,0,0,0,
0.338073171,-0.006,89.6,-11.23221951,1617.816659,1.692926829,5.393926829,0.766853659,,9522.747585,0.12195122,1617.816659,0.97561,0.766675,0.0486544,0.023059,0.025641,0.0305249,0.0305249,0,0,0,
0.45102439,-0.006,154.6,-10.29639024,1638.869439,1.664170732,5.146512195,0.774658537,,9543.800366,0.12195122,1638.869439,0.97561,0.774675,0.051811,0.0262849,0.025641,0.0346985,0.0346985,0,0,0,
0.4209,-0.0064,92.4,-10.0129,1658.527475,1.544575,4.85405,0.785875,,9536.010725,0.125,1658.527475,0.975,0.785359,0.0545288,0.0261176,0.0263158,0.0406827,0.0406827,0,0,0,
0.405275,-0.0052,86.6,-11.09815,1678.315375,1.477325,4.683475,0.785875,,9555.798625,0.125,1678.315375,0.975,0.785359,0.0545288,0.0261176,0.0263158,0.0408181,0.0408181,0,0,0,
0.470146341,-0.0104,90.4,-10.842,1699.553171,1.450073171,4.517,0.776219512,,9604.484098,0.12195122,1699.553171,0.97561,0.775475,0.0520468,0.0224825,0.025641,0.0355993,0.0355993,0,0,0,
0.48595122,-0.0004,80.8,-11.06119512,1720.163683,1.439365854,4.432439024,0.763731707,,9625.09461,0.12195122,1720.163683,0.97561,0.762675,0.0464699,0.0212826,0.025641,0.02887,0.02887,0,0,0,
0.491219512,-0.0046,91.8,-10.98190244,1740.623171,1.470756098,4.445585366,0.758268293,,9645.554098,0.12195122,1740.623171,0.97561,0.757875,0.0432062,0.0206565,0.025641,0.0259893,0.0259893,0,0,0,
0.461121951,-0.0024,86.4,-11.28182927,1760.79861,1.385317073,4.320073171,0.758268293,,9665.729537,0.12195122,1760.79861,0.97561,0.757875,0.0432062,0.0206565,0.025641,0.0259837,0.0259837,0,0,0,
0.448512195,-0.0048,93,-10.80397561,1781.131366,1.410634146,4.516317073,0.758268293,,9686.062293,0.12195122,1781.131366,0.97561,0.757875,0.0432062,0.0206565,0.025641,0.0258731,0.0258731,0,0,0,
0.456926829,-0.0088,84.8,-10.47678049,1800.652195,1.46602439,4.57104878,0.758268293,,9705.583122,0.12195122,1800.652195,0.97561,0.757875,0.0432062,0.0206565,0.025641,0.0260604,0.0260604,0,0,0,
0.465219512,-0.0068,102.6,-10.16390244,1820.000732,1.526243902,4.665902439,0.758268293,,9724.931659,0.12195122,1820.000732,0.97561,0.757875,0.0432062,0.0206565,0.025641,0.0261606,0.0261606,0,0,0,
0.387463415,-0.0068,106.8,-10.63846341,1840.501927,1.494512195,4.518878049,0.758268293,,9745.432854,0.12195122,1840.501927,0.97561,0.757875,0.0432062,0.0206565,0.025641,0.0257074,0.0257074,0,0,0,
0.389219512,-0.002,103.2,-10.9567561,1860.749,1.410731707,4.577682927,0.755926829,,9765.679927,0.12195122,1860.749,0.97561,0.755475,0.0431307,0.0163558,0.025641,0.0251706,0.0251706,0,0,0,
0.447095238,-0.0064,95.6,-10.96266667,1881.580667,1.364785714,4.490952381,0.735785714,,9812.652238,0.119047619,1881.580667,0.97619,0.734854,0.0357404,0.0161501,0.025,0.0169431,0.0169431,0,0,0,
0.419404762,-0.0074,95.2,-10.84978571,1902.273429,1.3625,4.625738095,0.736547619,,9833.345,0.119047619,1902.273429,0.97619,0.736415,0.036728,0.0210149,0.025,0.0173606,0.0173606,0,0,0,
0.475341463,-0.001,82.6,-11.1062439,1921.767122,1.359317073,4.772317073,0.756707317,,9826.698049,0.12195122,1921.767122,0.97561,0.757075,0.0431963,0.0212826,0.025641,0.025598,0.025598,0,0,0,
0.491804878,-0.0098,91.4,-10.98212195,1941.833976,1.336,4.676658537,0.758268293,,9846.764902,0.12195122,1941.833976,0.97561,0.757875,0.0432062,0.0206565,0.025641,0.0260102,0.0260102,0,0,0,
0.450658537,-0.0102,76.4,-10.28397561,1961.714341,1.513878049,5.242512195,0.758268293,,9866.645268,0.12195122,1961.714341,0.97561,0.757875,0.0432062,0.0206565,0.025641,0.026333,0.026333,0,0,0,
0.444146341,-0.0056,86.6,-10.09956098,1982.134512,1.565658537,5.670463415,0.766195122,,9887.065439,0.170731707,1982.134512,0.97561,0.766,0.0214357,0.0102482,0.025641,0.00641146,0.00641146,0,0,0,
0.434619048,0.0078,90.8,-11.22952381,2003.649762,1.643571429,5.877595238,0.749619048,,9934.721333,0.166666667,2003.649762,0.97619,0.749024,0.0208764,0.00715542,0,0.00437601,0.00437601,0,0,0,
0.367571429,-0.0032,97.4,-10.39866667,2023.363167,1.55197619,5.873428571,0.738190476,,9954.434738,0.142857143,2023.363167,0.97619,0.738098,0.0106014,0.00505964,0,0.00161561,0.00161561,0,0,0,
0.436488372,-0.01,155.8,-11.2685814,2043.423814,1.684837209,6.376581395,0.731581395,,9999.420186,0.790697674,2043.423814,0.976744,0.731333,0.0152678,0.00499756,0,0.00171538,0.00171538,0,0,0,
0.384380952,-0.0026,91.2,-11.25142857,2061.456262,2.197761905,7.059190476,0.72747619,,9992.527833,1,2061.456262,0.97619,0.727122,0.0240075,0.012523,0.025,0.00449102,0.00449102,0,0,0,
0.450285714,-0.0064,81.8,-11.49792857,2081.463929,2.259952381,6.592880952,0.730452381,,10012.5355,0.880952381,2081.463929,0.97619,0.730171,0.0321356,0.015337,0.025,0.0147355,0.0147355,0,0,0,
0.43197619,-0.0112,92,-11.36985714,2102.708119,2.132833333,6.128904762,0.740357143,,10033.77969,0.880952381,2102.708119,0.97619,0.740317,0.0388075,0.0210149,0.025,0.0190815,0.0190815,0,0,0,
0.39202439,-0.0066,112.6,-10.79419512,2121.955927,1.93197561,5.785658537,0.758268293,,10026.88685,0.87804878,2121.955927,0.97561,0.757875,0.0432062,0.0206565,0.025641,0.0260391,0.0260391,0,0,0,
0.437878049,0.0014,100,-10.73229268,2141.268317,1.798853659,5.567073171,0.758268293,,10046.19924,0.87804878,2141.268317,0.97561,0.757875,0.0432062,0.0206565,0.025641,0.02623,0.02623,0,0,0,
0.448853659,-0.0058,84.8,-11.49902439,2161.077878,1.674487805,5.241780488,0.766195122,,10066.0088,0.87804878,2161.077878,0.97561,0.766,0.0214357,0.0102482,0.025641,0.00642694,0.00642694,0,0,0,
0.464071429,-0.0022,85.4,-11.78014286,2182.364762,1.588071429,5.06047619,0.752547619,,10113.43633,0.880952381,2182.364762,0.97619,0.752024,0.0423075,0.0161501,0.025,0.0240057,0.0240057,0,0,0,
0.46202381,-0.0062,84.6,-11.51597619,2202.798024,1.5705,5.38197619,0.73197619,,10133.8696,0.880952381,2202.798024,0.97619,0.730951,0.0328115,0.0161501,0.025,0.0150104,0.0150104,0,0,0,
0.42427907,-0.006,92.6,-11.33881395,2224.091512,1.734255814,6.027581395,0.72327907,,10180.08788,1,2224.091512,0.976744,0.722833,0.0319511,0.0133407,0.0243902,0.0127046,0.0127046,0,0,0,
0.445604651,-0.0034,101.8,-10.67027907,2243.944465,1.913418605,6.71427907,0.707651163,,10199.94084,1,2243.944465,0.976744,0.706833,0.0491806,0.0261184,0.0243902,0.0316474,0.0316474,0,0,0,
0.376095238,-0.0054,112.4,-10.47757143,2262.726571,1.875880952,6.717214286,0.722833333,,10193.79814,1,2262.726571,0.97619,0.722366,0.0533384,0.0254563,0.025,0.0404184,0.0404184,0,0,0,
0.394119048,-0.0086,90.2,-10.48428571,2282.765786,1.818071429,6.286190476,0.725119048,,10213.83736,1,2282.765786,0.97619,0.724707,0.0548672,0.0309326,0.025,0.041406,0.041406,0,0,0,
0.402341463,-0.0078,83.8,-10.34173171,2301.776561,1.843731707,6.614560976,0.752804878,,10206.70749,1,2301.776561,0.97561,0.753075,0.0429176,0.0212826,0.025641,0.0239807,0.0239807,0,0,0,
0.364634146,-0.0058,115.2,-10.94543902,2321.230463,2.567097561,8.049219512,0.758268293,,10226.16139,1,2321.230463,0.97561,0.757875,0.0432062,0.0206565,0.025641,0.0260032,0.0260032,0,0,0,
0.284804878,-0.0006,97,-10.10714634,2339.878098,2.397463415,7.335146341,0.758268293,,10244.80902,1,2339.878098,0.97561,0.757875,0.0432062,0.0206565,0.025641,0.0264714,0.0264714,0,0,0,
0.406073171,-0.002,38.2,-10.82617073,2358.524805,2.237902439,6.987707317,0.758268293,,10263.45573,1,2358.524805,0.97561,0.757875,0.0432062,0.0206565,0.025641,0.0260708,0.0260708,0,0,0,
0.416756098,-0.0028,81.8,-10.88846341,2378.013439,2.000926829,6.487146341,0.758268293,,10282.94437,1,2378.013439,0.97561,0.757875,0.0432062,0.0206565,0.025641,0.0261425,0.0261425,0,0,0,
0.411146341,-0.0084,82.8,-11.31365854,2398.126659,1.856756098,5.961804878,0.766195122,,10303.05759,1,2398.126659,0.97561,0.766,0.0214357,0.0102482,0.025641,0.00638494,0.00638494,0,0,0,
0.45495,-0.0044,78.2,-11.336075,2417.474175,1.744625,5.6194,0.7844,,10294.95743,1,2417.474175,0.975,0.784667,0.0322795,0.0164157,0.0263158,0.0121331,0.0121331,0,0,0,
0.4318,-0.005,83.2,-11.550075,2438.125075,1.647875,5.266475,0.785875,,10315.60833,0.95,2438.125075,0.975,0.785359,0.0545288,0.0261176,0.0263158,0.0408454,0.0408454,0,0,0,
0.448525,-0.007,144.4,-11.456825,2458.5299,1.573725,5.030325,0.785875,,10336.01315,0.875,2458.5299,0.975,0.785359,0.0545288,0.0261176,0.0263158,0.0407051,0.0407051,0,0,0,
0.430243902,-0.0062,90,-11.48070732,2479.612146,1.517634146,4.852073171,0.780902439,,10384.54307,0.390243902,2479.612146,0.97561,0.780275,0.0531813,0.0277429,0.025641,0.0380909,0.0380909,0,0,0,
0.384780488,-0.0034,80.4,-11.52660976,2500.203732,1.481414634,4.95695122,0.764512195,,10405.13466,0,2500.203732,0.97561,0.763475,0.0469429,0.0224825,0.025641,0.0290234,0.0290234,0,0,0,
0.383853659,-0.0042,87.8,-11.38836585,2520.533341,1.449317073,5.041585366,0.758268293,,10425.46427,0,2520.533341,0.97561,0.757875,0.0432062,0.0206565,0.025641,0.0261346,0.0261346,0,0,0,
0.389925,-0.0044,111.8,-11.2849,2539.634625,1.7757,6.525025,0.777875,,10417.11787,0.6,2539.634625,0.975,0.777974,0.053358,0.0266285,0.0263158,0.0367653,0.0367653,0,0,0,
0.4739,-0.0082,91.6,-11.259375,2559.488,1.871,7.42865,0.785875,,10436.97125,0.875,2559.488,0.975,0.785359,0.0545288,0.0261176,0.0263158,0.0409481,0.0409481,0,0,0,
0.449325,-0.004,74,-11.29555,2579.5943,1.9095,7.55405,0.785875,,10457.07755,1,2579.5943,0.975,0.785359,0.0545288,0.0261176,0.0263158,0.0406748,0.0406748,0,0,0,
0.40665,-0.0004,99.4,-11.6294,2599.98465,1.769175,6.557075,0.785875,,10477.4679,1,2599.98465,0.975,0.785359,0.0545288,0.0261176,0.0263158,0.0406751,0.0406751,0,0,0,
0.43185,-0.0018,83,-11.764425,2620.0186,1.666725,5.820175,0.785875,,10497.50185,0.875,2620.0186,0.975,0.785359,0.0545288,0.0261176,0.0263158,0.0409077,0.0409077,0,0,0,
0.3997,-0.0068,109.6,-11.7904,2639.723425,1.5969,5.445175,0.785875,,10517.20668,0.875,2639.723425,0.975,0.785359,0.0545288,0.0261176,0.0263158,0.0409275,0.0409275,0,0,0,
0.446175,-0.0042,91.6,-11.862775,2659.400775,1.581075,5.27575,0.785875,,10536.88403,0.8,2659.400775,0.975,0.785359,0.0545288,0.0261176,0.0263158,0.0406645,0.0406645,0,0,0,
0.46135,-0.0056,93.6,-11.6771,2679.1459,1.5594,5.407675,0.785875,,10556.62915,0.175,2679.1459,0.975,0.785359,0.0545288,0.0261176,0.0263158,0.0405253,0.0405253,0,0,0,
0.3821,-0.0048,84.2,-11.390075,2698.783025,1.542275,5.14835,0.785875,,10576.26628,0.125,2698.783025,0.975,0.785359,0.0545288,0.0261176,0.0263158,0.0407599,0.0407599,0,0,0,
0.43395,-0.0058,90.8,-11.325,2719.02345,1.5621,5.291375,0.789175,,10596.5067,0.125,2719.02345,0.975,0.788744,0.0567421,0.031923,0.0263158,0.0425112,0.0425112,0,0,0,
0.42875,-0.0062,11.8,-11.549125,2738.818575,1.6149,5.92135,0.7966,,10616.30182,0.125,2738.818575,0.975,0.796359,0.0607274,0.0271928,0.0263158,0.047973,0.047973,0,0,0,
0.474725,-0.005,91,-11.613525,2758.587125,1.536175,5.564275,0.785875,,10636.07038,0.125,2758.587125,0.975,0.785359,0.0545288,0.0261176,0.0263158,0.0409049,0.0409049,0,0,0,
0.46345,-0.0066,131.2,-11.50065,2778.699125,1.48305,5.619475,0.794,,10656.18237,0.125,2778.699125,0.975,0.793692,0.0325141,0.0155733,0.0263158,0.0144339,0.0144339,0,0,0,
0.395804878,-0.003,86,-11.48019512,2799.508244,1.451365854,5.73804878,0.788829268,,10704.43917,0,2799.508244,0.97561,0.7884,0.0323671,0.0135571,0.025641,0.0133092,0.0133092,0,0,0,
0.475439024,-0.0032,86.4,-10.88673171,2820.069317,1.420780488,5.581878049,0.767731707,,10725.00024,0,2820.069317,0.97561,0.766775,0.0295301,0.0154795,0.0512821,0.010207,0.010207,0,0,0,
0.415804878,-0.0046,82.4,-10.33514634,2840.372268,1.423487805,5.855512195,0.758268293,,10745.3032,0,2840.372268,0.97561,0.757875,0.0432062,0.0206565,0.025641,0.026123,0.026123,0,0,0,
0.408243902,-0.006,159.2,-10.63060976,2859.888317,1.611146341,7.004804878,0.756707317,,10764.81924,0.609756098,2859.888317,0.97561,0.756275,0.0431711,0.0218908,0.025641,0.0255695,0.0255695,0,0,0,
0.388219512,-0.0072,105,-10.48192683,2878.756951,2.543390244,8.325414634,0.758268293,,10783.68788,0.87804878,2878.756951,0.97561,0.757875,0.0432062,0.0206565,0.025641,0.0261575,0.0261575,0,0,0,
0.43704878,-0.0102,93.8,-11.86202439,2897.602732,2.606487805,8.271902439,0.758268293,,10802.53366,0.87804878,2897.602732,0.97561,0.757875,0.0432062,0.0206565,0.025641,0.0259968,0.0259968,0,0,0,
0.370195122,-0.0046,99.6,-11.73387805,2917.464976,2.706317073,8.19704878,0.758268293,,10822.3959,0.87804878,2917.464976,0.97561,0.757875,0.0432062,0.0206565,0.025641,0.0260383,0.0260383,0,0,0,
0.449414634,-0.004,87.2,-12.6062439,2936.634976,2.454097561,7.300146341,0.758268293,,10841.5659,1,2936.634976,0.97561,0.757875,0.0432062,0.0206565,0.025641,0.0261,0.0261,0,0,0,
0.473512195,-0.004,92.8,-12.38173171,2956.494049,2.152121951,6.438121951,0.766195122,,10861.42498,0.926829268,2956.494049,0.97561,0.766,0.0214357,0.0102482,0.025641,0.00643717,0.00643717,0,0,0,
0.404560976,-0.0054,83,-12.359,2976.845756,1.968146341,6.009341463,0.766195122,,10881.77668,0.87804878,2976.845756,0.97561,0.766,0.0214357,0.0102482,0.025641,0.00640423,0.00640423,0,0,0,
0.399365854,-0.0082,91.4,-11.73612195,2997.31622,1.915243902,6.034634146,0.758268293,,10902.24715,0.87804878,2997.31622,0.97561,0.757875,0.0432062,0.0206565,0.025641,0.0260159,0.0260159,0,0,0,
0.387804878,-0.0056,80.8,-11.99139024,3016.478366,1.994121951,6.441073171,0.758268293,,10921.40929,0.87804878,3016.478366,0.97561,0.757875,0.0432062,0.0206565,0.025641,0.0263184,0.0263184,0,0,0,
0.416690476,-0.003,100.2,-12.32866667,3036.800357,1.919619048,6.514404762,0.745690476,,10967.87193,1,3036.800357,0.97619,0.745,0.0406608,0.0161501,0.025,0.0218567,0.0218567,0,0,0,
0.424452381,-0.003,186,-11.52978571,3057.28881,2.055595238,7.515857143,0.730452381,,10988.36038,1,3057.28881,0.97619,0.730171,0.0321356,0.015337,0.025,0.014628,0.014628,0,0,0,
0.42202381,-0.0106,99.4,-11.44861905,3076.821833,2.210809524,8.281,0.730452381,,11007.8934,1,3076.821833,0.97619,0.730171,0.0321356,0.015337,0.025,0.0147311,0.0147311,0,0,0,
0.423761905,-0.0078,88.4,-11.75961905,3096.336429,2.228214286,8.237738095,0.732738095,,11027.408,1,3096.336429,0.97619,0.732512,0.0340684,0.0210149,0.025,0.0155343,0.0155343,0,0,0,
0.419268293,-0.0096,92.8,-10.84419512,3115.312463,2.136780488,7.801195122,0.752804878,,11020.24339,1,3115.312463,0.97561,0.753075,0.0429176,0.0212826,0.025641,0.0239642,0.0239642,0,0,0,
0.408853659,-0.0012,169.4,-10.60858537,3135.896146,2.19404878,8.522487805,0.766195122,,11040.82707,1,3135.896146,0.97561,0.766,0.0214357,0.0102482,0.025641,0.00632966,0.00632966,0,0,0,
0.342170732,-0.005,97.2,-10.81226829,3152.97878,3.381756098,10.08153659,0.766195122,,11057.90971,1,3152.97878,0.97561,0.766,0.0214357,0.0102482,0.025641,0.00666029,0.00666029,0,0,0,
0.503487805,-0.0052,79.2,-11.24107317,3170.893049,3.098512195,8.597170732,0.764609756,,11075.82398,1,3170.893049,0.97561,0.764375,0.0274186,0.0231306,0.0512821,0.00923821,0.00923821,0,0,0,
0.387365854,-0.0072,84.8,-11.45397561,3190.942585,2.67097561,7.771121951,0.766195122,,11095.87351,1,3190.942585,0.97561,0.766,0.0214357,0.0102482,0.025641,0.00640999,0.00640999,0,0,0,
0.420073171,-0.0046,89.4,-11.03778049,3211.00939,3.107341463,8.515195122,0.766195122,,11115.94032,1,3211.00939,0.97561,0.766,0.0214357,0.0102482,0.025641,0.00639955,0.00639955,0,0,0,
0.425878049,-0.002,78.2,-11.22056098,3231.480683,2.896902439,7.428756098,0.758268293,,11136.41161,1,3231.480683,0.97561,0.757875,0.0432062,0.0206565,0.025641,0.0259948,0.0259948,0,0,0,
0.419609756,-0.0052,99.8,-11.09895122,3251.421707,2.528317073,6.746853659,0.758268293,,11156.35263,0.87804878,3251.421707,0.97561,0.757875,0.0432062,0.0206565,0.025641,0.0261512,0.0261512,0,0,0,
0.408219512,-0.0038,47.2,-11.18426829,3270.981098,2.371097561,6.916829268,0.758268293,,11175.91202,1,3270.981098,0.97561,0.757875,0.0432062,0.0206565,0.025641,0.0260524,0.0260524,0,0,0,
0.457585366,-0.0048,87,-11.2222439,3291.307634,2.224926829,6.863121951,0.764512195,,11196.23856,1,3291.307634,0.97561,0.764275,0.0473974,0.0262849,0.025641,0.0291057,0.0291057,0,0,0,
0.453225,-0.0058,89.6,-10.608725,3309.897575,2.066075,6.2286,0.784275,,11187.38083,1,3309.897575,0.975,0.784538,0.0544508,0.0266285,0.0263158,0.0403565,0.0403565,0,0,0,
0.423707317,-0.0036,195,-9.913682927,3331.244756,2.059146341,6.839536585,0.766853659,,11236.17568,1,3331.244756,0.97561,0.765875,0.0482526,0.0212826,0.025641,0.0314636,0.0314636,0,0,0,
0.429585366,-0.004,91.4,-10.83829268,3352.834805,1.931439024,6.048780488,0.758268293,,11257.76573,1,3352.834805,0.97561,0.757875,0.0432062,0.0206565,0.025641,0.0257247,0.0257247,0,0,0,
0.383804878,-0.0046,81.8,-10.89817073,3372.712,1.831414634,5.775195122,0.758268293,,11277.64293,1,3372.712,0.97561,0.757875,0.0432062,0.0206565,0.025641,0.0261038,0.0261038,0,0,0,
0.425585366,-0.006,82.6,-10.97202439,3392.896171,1.761560976,5.626756098,0.766195122,,11297.8271,1,3392.896171,0.97561,0.766,0.0214357,0.0102482,0.025641,0.00643384,0.00643384,0,0,0,
0.404536585,-0.0036,83.6,-11.09736585,3414.234488,1.722487805,5.606195122,0.774682927,,11319.16541,1,3414.234488,0.97561,0.7747,0.0480642,0.0282707,0.0512821,0.0282999,0.0282999,0,0,0,
0.435525,-0.003,92.8,-11.2597,3433.158075,1.68655,5.75445,0.785875,,11310.64133,1,3433.158075,0.975,0.785359,0.0545288,0.0261176,0.0263158,0.040725,0.040725,0,0,0,
0.435175,-0.0034,92.2,-11.027925,3453.175075,1.63055,5.348825,0.785875,,11330.65832,0.875,3453.175075,0.975,0.785359,0.0545288,0.0261176,0.0263158,0.0409361,0.0409361,0,0,0,
0.425425,-0.0062,103.2,-10.864025,3473.49675,1.593125,5.200175,0.785875,,11350.98,0.875,3473.49675,0.975,0.785359,0.0545288,0.0261176,0.0263158,0.040653,0.040653,0,0,0,
0.4424,-0.0048,154.4,-10.67955,3493.349125,1.5526,5.044175,0.785875,,11370.83238,0.875,3493.349125,0.975,0.785359,0.0545288,0.0261176,0.0263158,0.0409548,0.0409548,0,0,0,
0.4729,-0.0088,221.6,-10.892725,3513.187125,1.51815,4.9286,0.785875,,11390.67038,0.675,3513.187125,0.975,0.785359,0.0545288,0.0261176,0.0263158,0.0406497,0.0406497,0,0,0,
0.422,-0.0076,67.6,-10.8894,3532.736275,1.518075,5.292925,0.785875,,11410.21952,0.05,3532.736275,0.975,0.785359,0.0545288,0.0261176,0.0263158,0.0412193,0.0412193,0,0,0,
0.451375,-0.0022,46.8,-11.218575,3552.1428,1.4947,5.065475,0.785875,,11429.62605,0,3552.1428,0.975,0.785359,0.0545288,0.0261176,0.0263158,0.0408075,0.0408075,0,0,0,
0.414536585,-0.004,88,-11.35139024,3573.564195,1.464707317,5.155170732,0.772317073,,11478.49512,0,3573.564195,0.97561,0.771475,0.0507275,0.0212826,0.025641,0.0347714,0.0347714,0,0,0,
0.35195122,-0.0034,102.8,-9.987780488,3594.490976,1.448073171,5.193390244,0.758268293,,11499.4219,0,3594.490976,0.97561,0.757875,0.0432062,0.0206565,0.025641,0.02558,0.02558,0,0,0,
0.287317073,-0.0048,93.6,-8.17702439,3610.73961,1.630829268,6.025292683,0.758268293,,11515.67054,0.682926829,3610.73961,0.97561,0.757875,0.0432062,0.0206565,0.025641,0.0265647,0.0265647,0,0,0,
0.396585366,-0.0076,98.8,-9.396073171,3627.596366,1.65402439,6.063170732,0.758268293,,11532.52729,0.87804878,3627.596366,0.97561,0.757875,0.0432062,0.0206565,0.025641,0.0261383,0.0261383,0,0,0,
0.416170732,-0.0006,99.6,-10.70139024,3646.901659,1.635219512,7.172390244,0.758268293,,11551.83259,0.87804878,3646.901659,0.97561,0.757875,0.0432062,0.0206565,0.025641,0.0255313,0.0255313,0,0,0,
0.153853659,-0.0022,111.4,-9.793634146,3660.981073,2.035609756,8.618439024,0.758268293,,11565.912,0.926829268,3660.981073,0.97561,0.757875,0.0432062,0.0206565,0.025641,0.0270805,0.0270805,0,0,0,
0.33797561,-0.008,114.4,-11.22207317,3676.125073,2.667341463,8.870926829,0.758268293,,11581.056,0.87804878,3676.125073,0.97561,0.757875,0.0432062,0.0206565,0.025641,0.0263876,0.0263876,0,0,0,
0.34297619,-0.3148,96,-12.28961905,3697.013857,2.571142857,8.431452381,0.754833333,,11628.08543,1,3697.013857,0.97619,0.754366,0.0425792,0.0216154,0.025,0.0242089,0.0242089,0,0,0,
0.542243902,0.001,65.2,-12.54304878,3715.314683,2.298487805,7.384853659,0.758268293,,11620.24561,1,3715.314683,0.97561,0.757875,0.0432062,0.0206565,0.025641,0.0261212,0.0261212,0,0,0,
0.428756098,0.0674,98.8,-10.84387805,3734.947244,2.14704878,6.910780488,0.758268293,,11639.87817,1,3734.947244,0.97561,0.757875,0.0432062,0.0206565,0.025641,0.0259258,0.0259258,0,0,0,
0.436536585,0.0002,87.6,-10.99046341,3754.808854,2.023292683,6.646609756,0.758268293,,11659.73978,1,3754.808854,0.97561,0.757875,0.0432062,0.0206565,0.025641,0.0261474,0.0261474,0,0,0,
0.419926829,-0.002,89.6,-11.89334146,3775.14,1.914829268,6.411341463,0.770756098,,11680.07093,1,3775.14,0.97561,0.770675,0.0504205,0.0262849,0.025641,0.0329198,0.0329198,0,0,0,
0.43885,-0.0034,88.4,-11.809175,3793.4662,1.870125,6.53185,0.794,,11670.94945,1,3793.4662,0.975,0.793692,0.0325141,0.0155733,0.0263158,0.0145788,0.0145788,0,0,0,
0.4172,-0.0026,96.2,-11.418375,3813.1266,2.065825,7.01515,0.794,,11690.60985,1,3813.1266,0.975,0.793692,0.0325141,0.0155733,0.0263158,0.0145637,0.0145637,0,0,0,
0.466875,-0.0086,88.6,-11.410325,3833.8129,1.972,6.209775,0.794,,11711.29615,0.875,3833.8129,0.975,0.793692,0.0325141,0.0155733,0.0263158,0.014449,0.014449,0,0,0,
0.4484,-0.006,86.8,-11.382275,3854.44595,1.86085,5.7544,0.794,,11731.9292,0.875,3854.44595,0.975,0.793692,0.0325141,0.0155733,0.0263158,0.0144852,0.0144852,0,0,0,
0.43295,-0.0014,96.2,-11.639925,3874.44595,1.778625,5.47615,0.794,,11751.9292,0.875,3874.44595,0.975,0.793692,0.0325141,0.0155733,0.0263158,0.0146591,0.0146591,0,0,0,
0.478775,-0.0068,98.4,-10.999375,3894.474225,1.71295,5.27645,0.794,,11771.95748,0.875,3894.474225,0.975,0.793692,0.0325141,0.0155733,0.0263158,0.0144117,0.0144117,0,0,0,
0.440121951,-0.002,83.8,-11.60439024,3916.359537,1.656146341,5.104609756,0.775560976,,11821.29046,0.87804878,3916.359537,0.97561,0.7748,0.0285183,0.0114578,0.025641,0.00984968,0.00984968,0,0,0,
0.413878049,-0.0086,75.8,-11.44073171,3937.010171,1.614878049,5.147536585,0.766195122,,11841.9411,0.87804878,3937.010171,0.97561,0.766,0.0214357,0.0102482,0.025641,0.00637866,0.00637866,0,0,0,
0.405073171,-0.0002,82.4,-11.30641463,3956.913463,1.576609756,5.240268293,0.766195122,,11861.84439,0.87804878,3956.913463,0.97561,0.766,0.0214357,0.0102482,0.025641,0.00641997,0.00641997,0,0,0,
0.463658537,-0.0048,90,-11.36212195,3976.842683,1.542317073,5.182487805,0.766195122,,11881.77361,0.87804878,3976.842683,0.97561,0.766,0.0214357,0.0102482,0.025641,0.00651845,0.00651845,0,0,0,
0.441707317,-0.0062,78.8,-11.69026829,3997.862341,1.545146341,5.476682927,0.781804878,,11902.79327,0.87804878,3997.862341,0.97561,0.782,0.0313786,0.0177504,0.025641,0.0114035,0.0114035,0,0,0,
0.4406,-0.0022,79.6,-11.7666,4016.9484,1.53195,5.350775,0.794,,11894.43165,0.875,4016.9484,0.975,0.793692,0.0325141,0.0155733,0.0263158,0.014764,0.014764,0,0,0,
